# t_us_pico,raw,volt
186,34152,1.7197
4034,35032,1.7640
8036,34040,1.7141
12031,32487,1.6359
16029,31831,1.6028
20030,33032,1.6633
24030,33976,1.7109
28031,33112,1.6673
32036,31399,1.5811
36036,30871,1.5545
40035,32327,1.6278
44036,33160,1.6698
48033,32583,1.6407
52032,30935,1.5577
56037,30535,1.5376
60034,31943,1.6085
64031,33320,1.6778
68030,32647,1.6439
72033,31271,1.5746
76035,31175,1.5698
80035,32087,1.6157
84033,33256,1.6746
88034,32391,1.6310
92036,30919,1.5569
96030,30487,1.5352
100034,31751,1.5988
104032,32952,1.6593
108032,32407,1.6318
112038,30999,1.5609
116031,30551,1.5384
120035,31911,1.6069
124031,33048,1.6641
128035,32391,1.6310
132031,31079,1.5650
136031,30951,1.5585
140031,32055,1.6141
144034,33512,1.6875
148032,32824,1.6528
152032,31591,1.5908
156031,31239,1.5730
160033,32343,1.6286
164034,33192,1.6714
168036,32535,1.6383
172034,31495,1.5859
176036,31223,1.5722
180033,32327,1.6278
184032,33608,1.6923
188034,32888,1.6561
192031,31479,1.5851
196030,31111,1.5666
200035,32583,1.6407
204033,33528,1.6883
208034,32936,1.6585
212030,31991,1.6109
216031,31191,1.5706
220033,32487,1.6359
224031,33880,1.7060
228036,33192,1.6714
232034,31591,1.5908
236036,31191,1.5706
240031,32471,1.6351
244037,33496,1.6867
248037,33032,1.6633
252031,31911,1.6069
256033,31239,1.5730
260033,32423,1.6327
264035,33624,1.6931
268037,32856,1.6545
272032,31463,1.5843
276032,31047,1.5634
280036,32471,1.6351
284032,33480,1.6859
288034,32792,1.6512
292034,31447,1.5835
296037,31015,1.5618
300031,32279,1.6254
304035,33576,1.6907
308035,33304,1.6770
312032,31431,1.5827
316032,31303,1.5763
320035,32295,1.6262
324032,33704,1.6972
328032,32920,1.6577
332033,31639,1.5932
336036,31367,1.5795
340036,32407,1.6318
344036,33528,1.6883
348033,32808,1.6520
352035,31351,1.5787
356031,31015,1.5618
360031,32279,1.6254
364032,33736,1.6988
368030,33096,1.6665
372031,31847,1.6036
376033,31879,1.6053
380036,33192,1.6714
384033,34280,1.7262
388032,33832,1.7036
392030,32487,1.6359
396031,32295,1.6262
400037,33784,1.7012
404030,35240,1.7745
408033,34792,1.7519
412034,33816,1.7028
416031,33384,1.6810
420031,34824,1.7536
424031,36072,1.8164
428031,35368,1.7809
432030,33288,1.6762
436031,32471,1.6351
440032,33208,1.6722
444032,33912,1.7076
448036,32824,1.6528
452030,31527,1.5875
456035,30551,1.5384
460034,31783,1.6004
464035,32984,1.6609
468038,32375,1.6302
472032,30855,1.5537
476032,30711,1.5464
480036,31815,1.6020
484034,32920,1.6577
488032,32039,1.6133
492032,30695,1.5456
496036,30423,1.5319
500035,32135,1.6182
504034,32776,1.6504
508034,32087,1.6157
512035,30695,1.5456
516033,30455,1.5336
520031,31895,1.6061
524034,32840,1.6537
528031,32231,1.6230
532032,30279,1.5247
536033,28983,1.4594
540038,30103,1.5158
544037,31543,1.5883
548033,31527,1.5875
552032,31463,1.5843
556031,33528,1.6883
560030,37769,1.9018
564036,41754,2.1025
568036,43306,2.1807
572031,42986,2.1646
576031,41194,2.0743
580034,39737,2.0009
584031,37769,1.9018
588030,34248,1.7246
592032,31239,1.5730
596034,29495,1.4852
600031,30279,1.5247
604035,31751,1.5988
608037,31335,1.5779
612030,30103,1.5158
616034,29991,1.5102
620033,31095,1.5658
624031,31975,1.6101
628037,31047,1.5634
632032,29751,1.4981
636033,29623,1.4917
640034,30807,1.5513
644033,31879,1.6053
648032,31175,1.5698
652033,29911,1.5062
656036,29735,1.4973
660034,31159,1.5690
664032,32503,1.6367
668030,31927,1.6077
672032,30327,1.5271
676032,30135,1.5174
680032,31511,1.5867
684034,32647,1.6439
688030,31991,1.6109
692031,30631,1.5424
696032,30375,1.5295
700030,31527,1.5875
704033,32663,1.6447
708030,32279,1.6254
712033,30967,1.5593
716030,30759,1.5489
720034,32199,1.6214
724031,33736,1.6988
728035,33048,1.6641
732036,31719,1.5972
736036,31783,1.6004
740034,33224,1.6730
744033,34376,1.7310
748033,33464,1.6851
752033,32343,1.6286
756030,32471,1.6351
760034,33944,1.7092
764030,35112,1.7681
768031,34312,1.7278
772035,33224,1.6730
776028,33144,1.6690
780033,34536,1.7391
784032,35640,1.7946
788037,34936,1.7592
792033,33608,1.6923
796032,33528,1.6883
800035,34696,1.7471
804031,35800,1.8027
808033,34968,1.7608
812035,33384,1.6810
816031,32824,1.6528
820032,34008,1.7125
824035,34488,1.7366
828035,33768,1.7004
832035,32007,1.6117
836036,31495,1.5859
840034,32695,1.6463
844034,33480,1.6859
848034,32663,1.6447
852033,31255,1.5738
856031,30903,1.5561
860030,32359,1.6294
864034,33400,1.6818
868035,32439,1.6335
872035,31095,1.5658
876030,30839,1.5529
880037,32343,1.6286
884035,33080,1.6657
888030,32215,1.6222
892033,30871,1.5545
896033,30775,1.5497
900033,31847,1.6036
904033,32808,1.6520
908033,32071,1.6149
912032,30887,1.5553
916035,30743,1.5481
920036,31911,1.6069
924031,33032,1.6633
928031,32471,1.6351
932034,30919,1.5569
936035,30791,1.5505
940032,32631,1.6431
944036,33640,1.6939
948036,33208,1.6722
952035,31831,1.6028
956031,32023,1.6125
960030,33560,1.6899
964032,34904,1.7576
968031,35048,1.7648
972032,35288,1.7769
976032,37017,1.8640
980031,40905,2.0598
984036,44954,2.2636
988031,47771,2.4055
992032,49772,2.5063
996033,52108,2.6239
1000030,55149,2.7770
1004032,57165,2.8785
1008029,57085,2.8745
1012032,55181,2.7786
1016034,55533,2.7964
1020031,58206,2.9309
1024029,60334,3.0381
1028032,59358,2.9890
1032033,55869,2.8133
1036037,52844,2.6609
1040029,52460,2.6416
1044036,51100,2.5731
1048030,47499,2.3918
1052032,43370,2.1839
1056036,40249,2.0267
1060037,38217,1.9244
1064032,35160,1.7705
1068030,30327,1.5271
1072030,25686,1.2934
1076030,23013,1.1588
1080036,23477,1.1822
1084035,23749,1.1959
1088031,22869,1.1516
1092032,21477,1.0815
1096036,21477,1.0815
1100033,22245,1.1201
1104030,23125,1.1645
1108032,22389,1.1274
1112034,20581,1.0364
1116034,20388,1.0266
1120033,21973,1.1064
1124038,22837,1.1500
1128033,21973,1.1064
1132033,20613,1.0380
1136036,20549,1.0347
1140030,21637,1.0895
1144035,22437,1.1298
1148030,21941,1.1048
1152029,20164,1.0154
1156034,19620,0.9880
1160037,20949,1.0549
1164032,21685,1.0919
1168032,20645,1.0396
1172036,19124,0.9630
1176031,18980,0.9557
1180031,19828,0.9984
1184032,20821,1.0484
1188035,19908,1.0025
1192036,18708,0.9420
1196032,18580,0.9356
1200034,19940,1.0041
1204030,21109,1.0629
1208033,20196,1.0170
1212037,18676,0.9404
1216030,18580,0.9356
1220035,20452,1.0299
1224037,21381,1.0766
1228036,21477,1.0815
1232033,20949,1.0549
1236030,21365,1.0758
1240031,23477,1.1822
1244036,25078,1.2628
1248033,25062,1.2620
1252034,24421,1.2297
1256029,25414,1.2797
1260031,27686,1.3941
1264035,29239,1.4723
1268031,28855,1.4530
1272030,28358,1.4280
1276037,28198,1.4199
1280034,30263,1.5239
1284034,31143,1.5682
1288035,30695,1.5456
1292031,29671,1.4941
1296035,29879,1.5046
1300029,31895,1.6061
1304035,33528,1.6883
1308032,32840,1.6537
1312030,31655,1.5940
1316037,31495,1.5859
1320036,32888,1.6561
1324032,33544,1.6891
1328033,32599,1.6415
1332035,31223,1.5722
1336035,31015,1.5618
1340036,32503,1.6367
1344034,33496,1.6867
1348030,32551,1.6391
1352031,31047,1.5634
1356037,31191,1.5706
1360037,32599,1.6415
1364030,33656,1.6947
1368031,32631,1.6431
1372035,31559,1.5891
1376032,31399,1.5811
1380030,32391,1.6310
1384031,33528,1.6883
1388034,32679,1.6455
1392033,31495,1.5859
1396035,31703,1.5964
1400033,33048,1.6641
1404028,33880,1.7060
1408029,32856,1.6545
1412030,31559,1.5891
1416037,31351,1.5787
1420033,32808,1.6520
1424033,33512,1.6875
1428034,32808,1.6520
1432030,31815,1.6020
1436032,31495,1.5859
1440031,32936,1.6585
1444032,33768,1.7004
1448032,33064,1.6649
1452032,32055,1.6141
1456034,31719,1.5972
1460034,33256,1.6746
1464033,34296,1.7270
1468036,33480,1.6859
1472036,32247,1.6238
1476037,32167,1.6198
1480031,33672,1.6955
1484034,34568,1.7407
1488029,33832,1.7036
1492037,32471,1.6351
1496033,32327,1.6278
1500034,33720,1.6980
1504034,34568,1.7407
1508036,33976,1.7109
1512031,32343,1.6286
1516037,32183,1.6206
1520036,33640,1.6939
1524032,34472,1.7358
1528036,33720,1.6980
1532036,32615,1.6423
1536034,32711,1.6472
1540032,34072,1.7157
1544036,35000,1.7624
1548033,34200,1.7221
1552033,32888,1.6561
1556035,32711,1.6472
1560035,34312,1.7278
1564034,35128,1.7689
1568030,34232,1.7237
1572031,32776,1.6504
1576036,32856,1.6545
1580031,34120,1.7181
1584032,34904,1.7576
1588036,33976,1.7109
1592037,32711,1.6472
1596036,32856,1.6545
1600034,34296,1.7270
1604030,34744,1.7495
1608034,33944,1.7092
1612029,32872,1.6553
1616037,32743,1.6488
1620033,33992,1.7117
1624036,34744,1.7495
1628038,33800,1.7020
1632037,32503,1.6367
1636031,32295,1.6262
1640033,33912,1.7076
1644033,34856,1.7552
1648033,34104,1.7173
1652030,32840,1.6537
1656036,32872,1.6553
1660036,34168,1.7205
1664030,35032,1.7640
1668036,34136,1.7189
1672032,32583,1.6407
1676029,32567,1.6399
1680031,33944,1.7092
1684029,34808,1.7527
1688034,33944,1.7092
1692032,32936,1.6585
1696032,32407,1.6318
1700034,33864,1.7052
1704033,34872,1.7560
1708033,34056,1.7149
1712030,32904,1.6569
1716034,32679,1.6455
1720036,34280,1.7262
1724032,34968,1.7608
1728033,33784,1.7012
1732035,32519,1.6375
1736030,32663,1.6447
1740032,33752,1.6996
1744030,34472,1.7358
1748035,33592,1.6915
1752036,32279,1.6254
1756033,32295,1.6262
1760031,33768,1.7004
1764033,34392,1.7318
1768029,33640,1.6939
1772033,32311,1.6270
1776033,32263,1.6246
1780031,33880,1.7060
1784036,34856,1.7552
1788033,34120,1.7181
1792031,32567,1.6399
1796031,32439,1.6335
1800033,33832,1.7036
1804035,34568,1.7407
1808035,33560,1.6899
1812031,32439,1.6335
1816033,32647,1.6439
1820034,34168,1.7205
1824032,34840,1.7544
1828035,33848,1.7044
1832032,32375,1.6302
1836031,32311,1.6270
1840037,33912,1.7076
1844034,34760,1.7503
1848033,33800,1.7020
1852034,32423,1.6327
1856037,31943,1.6085
1860034,33576,1.6907
1864037,34472,1.7358
1868030,33608,1.6923
1872033,32183,1.6206
1876034,32183,1.6206
1880029,33528,1.6883
1884034,34248,1.7246
1888035,33688,1.6964
1892035,32103,1.6165
1896035,32295,1.6262
1900030,33704,1.6972
1904031,34712,1.7479
1908031,33688,1.6964
1912033,32103,1.6165
1916037,32263,1.6246
1920034,33912,1.7076
1924032,34648,1.7447
1928031,33704,1.6972
1932037,32423,1.6327
1936030,32007,1.6117
1940033,33592,1.6915
1944033,34392,1.7318
1948033,33528,1.6883
1952036,32007,1.6117
1956032,32023,1.6125
1960033,33448,1.6843
1964033,34248,1.7246
1968032,33320,1.6778
1972034,31991,1.6109
1976034,32183,1.6206
1980031,33576,1.6907
1984032,34312,1.7278
1988036,33736,1.6988
1992030,32215,1.6222
1996034,32135,1.6182
2000032,33688,1.6964
2004029,34248,1.7246
2008035,33160,1.6698
2012036,31735,1.5980
2016032,31943,1.6085
2020029,33160,1.6698
2024032,34184,1.7213
2028029,33160,1.6698
2032035,31959,1.6093
2036032,32071,1.6149
2040030,33640,1.6939
2044031,34504,1.7374
2048033,33816,1.7028
2052032,32647,1.6439
2056033,32583,1.6407
2060034,34280,1.7262
2064030,35256,1.7753
2068036,34696,1.7471
2072034,33688,1.6964
2076029,34072,1.7157
2080036,35608,1.7930
2084036,36200,1.8228
2088031,35496,1.7874
2092029,34360,1.7302
2096033,34184,1.7213
2100031,35240,1.7745
2104035,35512,1.7882
2108030,33896,1.7068
2112031,32343,1.6286
2116034,31767,1.5996
2120037,32984,1.6609
2124031,33640,1.6939
2128037,32888,1.6561
2132031,31479,1.5851
2136031,31143,1.5682
2140031,32503,1.6367
2144037,33240,1.6738
2148035,32247,1.6238
2152034,31111,1.5666
2156030,31159,1.5690
2160032,32567,1.6399
2164035,33304,1.6770
2168033,32167,1.6198
2172034,30807,1.5513
2176028,30999,1.5609
2180031,32391,1.6310
2184033,32936,1.6585
2188036,31431,1.5827
2192031,29495,1.4852
2196031,29271,1.4739
2200034,30951,1.5585
2204037,32487,1.6359
2208036,32663,1.6447
2212033,32952,1.6593
2216037,36104,1.8180
2220034,40281,2.0283
2224033,43386,2.1847
2228035,43786,2.2048
2232032,41466,2.0880
2236037,39337,1.9808
2240034,38345,1.9309
2244033,36456,1.8357
2248035,32904,1.6569
2252031,30039,1.5126
2256034,29495,1.4852
2260036,30647,1.5432
2264034,31895,1.6061
2268032,31527,1.5875
2272035,30359,1.5287
2276032,30519,1.5368
2280035,31559,1.5891
2284037,32247,1.6238
2288031,31175,1.5698
2292033,29975,1.5094
2296031,30327,1.5271
2300034,31655,1.5940
2304032,32279,1.6254
2308032,31671,1.5948
2312030,30359,1.5287
2316037,30343,1.5279
2320035,32103,1.6165
2324031,32439,1.6335
2328031,31815,1.6020
2332032,30327,1.5271
2336033,30503,1.5360
2340033,31911,1.6069
2344035,32535,1.6383
2348031,31559,1.5891
2352035,30423,1.5319
2356034,30535,1.5376
2360032,32103,1.6165
2364033,32952,1.6593
2368036,32055,1.6141
2372031,30647,1.5432
2376030,30791,1.5505
2380035,32279,1.6254
2384036,33176,1.6706
2388034,32455,1.6343
2392036,31591,1.5908
2396033,31335,1.5779
2400031,32743,1.6488
2404030,33560,1.6899
2408032,32631,1.6431
2412033,31447,1.5835
2416030,31735,1.5980
2420031,33400,1.6818
2424035,34312,1.7278
2428035,33512,1.6875
2432035,32519,1.6375
2436032,33032,1.6633
2440032,34344,1.7294
2444030,35016,1.7632
2448033,34184,1.7213
2452033,32952,1.6593
2456035,33080,1.6657
2460032,34344,1.7294
2464031,35288,1.7769
2468036,34472,1.7358
2472032,33128,1.6682
2476032,33336,1.6786
2480032,34728,1.7487
2484033,35096,1.7673
2488032,33912,1.7076
2492037,32215,1.6222
2496036,32247,1.6238
2500034,33304,1.6770
2504038,33608,1.6923
2508035,32519,1.6375
2512036,31063,1.5642
2516032,31335,1.5779
2520033,32792,1.6512
2524033,33352,1.6794
2528035,32375,1.6302
2532032,30951,1.5585
2536037,30887,1.5553
2540032,32295,1.6262
2544038,32984,1.6609
2548031,31959,1.6093
2552033,30759,1.5489
2556032,30615,1.5416
2560030,32167,1.6198
2564034,33080,1.6657
2568030,31895,1.6061
2572031,30743,1.5481
2576032,30791,1.5505
2580032,32279,1.6254
2584031,33192,1.6714
2588033,32119,1.6173
2592034,30775,1.5497
2596036,30983,1.5601
2600031,32231,1.6230
2604030,33320,1.6778
2608033,31959,1.6093
2612030,30727,1.5473
2616032,30983,1.5601
2620034,32535,1.6383
2624031,33192,1.6714
2628032,32231,1.6230
2632033,30903,1.5561
2636031,31415,1.5819
2640031,32711,1.6472
2644035,33528,1.6883
2648032,32215,1.6222
2652034,30775,1.5497
2656034,31159,1.5690
2660035,32215,1.6222
2664032,32727,1.6480
2668032,31927,1.6077
2672029,30599,1.5408
2676032,30727,1.5473
2680037,32439,1.6335
2684031,33224,1.6730
2688031,32311,1.6270
2692033,30983,1.5601
2696032,30983,1.5601
2700032,32359,1.6294
2704038,33336,1.6786
2708037,32039,1.6133
2712035,30807,1.5513
2716033,31319,1.5771
2720032,32631,1.6431
2724030,33352,1.6794
2728034,32824,1.6528
2732032,31335,1.5779
2736034,31223,1.5722
2740035,32952,1.6593
2744036,33640,1.6939
2748034,32407,1.6318
2752037,31255,1.5738
2756033,30871,1.5545
2760037,32439,1.6335
2764035,33416,1.6827
2768035,32343,1.6286
2772036,31031,1.5626
2776031,30823,1.5521
2780034,32279,1.6254
2784032,33064,1.6649
2788032,32359,1.6294
2792031,30951,1.5585
2796031,30967,1.5593
2800029,32711,1.6472
2804033,33144,1.6690
2808035,32263,1.6246
2812036,30951,1.5585
2816030,31031,1.5626
2820032,32439,1.6335
2824038,33208,1.6722
2828032,32359,1.6294
2832030,30967,1.5593
2836032,31623,1.5924
2840034,32904,1.6569
2844031,33800,1.7020
2848035,32888,1.6561
2852034,31591,1.5908
2856037,32039,1.6133
2860035,33848,1.7044
2864037,34712,1.7479
2868036,34152,1.7197
2872033,33032,1.6633
2876035,32856,1.6545
2880031,34616,1.7431
2884030,35624,1.7938
2888036,34776,1.7511
2892032,33064,1.6649
2896032,32727,1.6480
2900033,33880,1.7060
2904034,33880,1.7060
2908038,32567,1.6399
2912029,30791,1.5505
2916034,30535,1.5376
2920031,31863,1.6045
2924034,32407,1.6318
2928036,31447,1.5835
2932036,30599,1.5408
2936033,30679,1.5448
2940032,31911,1.6069
2944033,32375,1.6302
2948032,31767,1.5996
2952031,30599,1.5408
2956036,30455,1.5336
2960032,31879,1.6053
2964031,32551,1.6391
2968031,31575,1.5900
2972035,30263,1.5239
2976036,30391,1.5303
2980036,31655,1.5940
2984034,32503,1.6367
2988032,31543,1.5883
2992038,29735,1.4973
2996036,29335,1.4772
3000037,30183,1.5199
3004032,30935,1.5577
3008030,30967,1.5593
3012036,30439,1.5327
3016032,32231,1.6230
3020030,36424,1.8341
3024031,40009,2.0146
3028036,41162,2.0727
3032035,41450,2.0872
3036030,40777,2.0533
3040031,40265,2.0275
3044030,38649,1.9462
3048032,35352,1.7801
3052031,31863,1.6045
3056032,29799,1.5005
3060033,30087,1.5150
3064035,30183,1.5199
3068035,29527,1.4868
3072034,28807,1.4506
3076029,29335,1.4772
3080030,31047,1.5634
3084035,31815,1.6020
3088036,30903,1.5561
3092037,29687,1.4949
3096037,30215,1.5215
3100032,31415,1.5819
3104033,32279,1.6254
3108037,31111,1.5666
3112036,30007,1.5110
3116033,30167,1.5191
3120034,32039,1.6133
3124033,32327,1.6278
3128031,31303,1.5763
3132031,30183,1.5199
3136034,30647,1.5432
3140031,31959,1.6093
3144032,32647,1.6439
3148030,31719,1.5972
3152034,30535,1.5376
3156032,30807,1.5513
3160036,32359,1.6294
3164030,33080,1.6657
3168030,32311,1.6270
3172035,30903,1.5561
3176034,31079,1.5650
3180031,32776,1.6504
3184032,33464,1.6851
3188034,32551,1.6391
3192031,31367,1.5795
3196031,31479,1.5851
3200036,33272,1.6754
3204033,33800,1.7020
3208031,32872,1.6553
3212039,31863,1.6045
3216036,32215,1.6222
3220036,33880,1.7060
3224036,34744,1.7495
3228031,33976,1.7109
3232033,32840,1.6537
3236035,33080,1.6657
3240031,34664,1.7455
3244034,35400,1.7826
3248030,34648,1.7447
3252032,33400,1.6818
3256031,33496,1.6867
3260033,35192,1.7721
3264034,35656,1.7954
3268036,34712,1.7479
3272032,33320,1.6778
3276030,33112,1.6673
3280034,34392,1.7318
3284037,34776,1.7511
3288035,33544,1.6891
3292037,31863,1.6045
3296038,32039,1.6133
3300034,33336,1.6786
3304036,33640,1.6939
3308030,32423,1.6327
3312037,31159,1.5690
3316034,31015,1.5618
3320036,32679,1.6455
3324030,33112,1.6673
3328036,32007,1.6117
3332034,30775,1.5497
3336036,30759,1.5489
3340032,32471,1.6351
3344030,33080,1.6657
3348033,32007,1.6117
3352032,30919,1.5569
3356037,31159,1.5690
3360032,32311,1.6270
3364030,33032,1.6633
3368035,32055,1.6141
3372034,31271,1.5746
3376037,31191,1.5706
3380037,32776,1.6504
3384033,33240,1.6738
3388031,32135,1.6182
3392037,30887,1.5553
3396034,31047,1.5634
3400036,32551,1.6391
3404030,33320,1.6778
3408029,32615,1.6423
3412036,31447,1.5835
3416028,31255,1.5738
3420034,32792,1.6512
3424035,33432,1.6835
3428033,32391,1.6310
3432032,31191,1.5706
3436036,31895,1.6061
3440035,33464,1.6851
3444036,33928,1.7084
3448031,33112,1.6673
3452036,31991,1.6109
3456032,32423,1.6327
3460034,34216,1.7229
3464032,35112,1.7681
3468035,34504,1.7374
3472030,34472,1.7358
3476030,36424,1.8341
3480035,39961,2.0122
3484036,43418,2.1863
3488036,45595,2.2959
3492036,48155,2.4248
3496033,50860,2.5610
3500032,54669,2.7528
3504032,56333,2.8366
3508038,55501,2.7947
3512031,53933,2.7158
3516033,54189,2.7287
3520038,56685,2.8544
3524036,58078,2.9245
3528029,57790,2.9100
3532035,55277,2.7835
3536031,53725,2.7053
3540033,53148,2.6763
3544033,52268,2.6319
3548033,48699,2.4522
3552032,45002,2.2661
3556033,43018,2.1662
3560030,42330,2.1315
3564031,39241,1.9760
3568033,34328,1.7286
3572030,29383,1.4796
3576037,26582,1.3385
3580033,25446,1.2813
3584032,24533,1.2354
3588032,22997,1.1580
3592034,21573,1.0863
3596031,21973,1.1064
3600031,23397,1.1782
3604035,23909,1.2039
3608031,22613,1.1387
3612038,21509,1.0831
3616033,21333,1.0742
3620031,22869,1.1516
3624038,23477,1.1822
3628034,22245,1.1201
3632032,20933,1.0541
3636030,21045,1.0597
3640032,22469,1.1314
3644031,22965,1.1564
3648035,21829,1.0992
3652032,20645,1.0396
3656031,20725,1.0436
3660035,22597,1.1379
3664034,22757,1.1459
3668034,21557,1.0855
3672033,20196,1.0170
3676031,20340,1.0242
3680031,21717,1.0936
3684030,22165,1.1161
3688038,20885,1.0517
3692029,19636,0.9888
3696034,20244,1.0194
3700037,22021,1.1089
3704030,22741,1.1451
3708031,21413,1.0782
3712030,19972,1.0057
3716030,20116,1.0129
3720031,22005,1.1081
3724030,23029,1.1596
3728031,22485,1.1322
3732029,21093,1.0621
3736035,21189,1.0670
3740035,22773,1.1467
3744034,23461,1.1814
3748036,22565,1.1363
3752035,21637,1.0895
3756031,22773,1.1467
3760031,24854,1.2515
3764035,26534,1.3361
3768035,26438,1.3313
3772032,26166,1.3176
3776030,26822,1.3506
3780032,29127,1.4667
3784036,30727,1.5473
3788033,29783,1.4997
3792031,29271,1.4739
3796033,30039,1.5126
3800037,31959,1.6093
3804029,32952,1.6593
3808033,32263,1.6246
3812033,31447,1.5835
3816035,31639,1.5932
3820032,33256,1.6746
3824035,33768,1.7004
3828035,32583,1.6407
3832036,31383,1.5803
3836034,31815,1.6020
3840031,33112,1.6673
3844031,33720,1.6980
3848037,32776,1.6504
3852034,31719,1.5972
3856033,31799,1.6012
3860037,33288,1.6762
3864035,33688,1.6964
3868033,32567,1.6399
3872038,31543,1.5883
3876038,32135,1.6182
3880031,33400,1.6818
3884034,34184,1.7213
3888029,32952,1.6593
3892028,31383,1.5803
3896035,31623,1.5924
3900031,33288,1.6762
3904036,34056,1.7149
3908030,32840,1.6537
3912031,31607,1.5916
3916030,32071,1.6149
3920033,33400,1.6818
3924030,34088,1.7165
3928036,32968,1.6601
3932036,31639,1.5932
3936037,32055,1.6141
3940036,33768,1.7004
3944036,34168,1.7205
3948031,32984,1.6609
3952029,31687,1.5956
3956036,31943,1.6085
3960036,33512,1.6875
3964034,34152,1.7197
3968032,33128,1.6682
3972031,32039,1.6133
3976033,32583,1.6407
3980037,33992,1.7117
3984033,34696,1.7471
3988033,33496,1.6867
3992034,32519,1.6375
3996033,32583,1.6407
4000036,34104,1.7173
4004032,34584,1.7415
4008032,33464,1.6851
4012034,32343,1.6286
4016030,32679,1.6455
4020032,34152,1.7197
4024034,35016,1.7632
4028033,33720,1.6980
4032032,32215,1.6222
4036031,32471,1.6351
4040035,34040,1.7141
4044035,34600,1.7423
4048034,33592,1.6915
4052030,32215,1.6222
4056035,32743,1.6488
4060030,34120,1.7181
4064032,34792,1.7519
4068032,33720,1.6980
4072030,32503,1.6367
4076037,32808,1.6520
4080032,34392,1.7318
4084030,34680,1.7463
4088032,33624,1.6931
4092034,32487,1.6359
4096037,33000,1.6617
4100036,34424,1.7334
4104031,35048,1.7648
4108036,33848,1.7044
4112034,32503,1.6367
4116032,32679,1.6455
4120035,34504,1.7374
4124036,34968,1.7608
4128033,33720,1.6980
4132030,32952,1.6593
4136034,33352,1.6794
4140037,35016,1.7632
4144033,35464,1.7858
4148035,34200,1.7221
4152034,32920,1.6577
4156036,33304,1.6770
4160032,34744,1.7495
4164036,35064,1.7656
4168036,34424,1.7334
4172035,33176,1.6706
4176034,33192,1.6714
4180032,34664,1.7455
4184035,35176,1.7713
4188032,34008,1.7125
4192029,33064,1.6649
4196034,32936,1.6585
4200030,34472,1.7358
4204030,34984,1.7616
4208031,33816,1.7028
4212033,33064,1.6649
4216035,33192,1.6714
4220032,34968,1.7608
4224031,35144,1.7697
4228032,33960,1.7100
4232030,32968,1.6601
4236029,33160,1.6698
4240032,34536,1.7391
4244031,35432,1.7842
4248036,34200,1.7221
4252037,33128,1.6682
4256031,33128,1.6682
4260035,34696,1.7471
4264034,35480,1.7866
4268031,34216,1.7229
4272036,32743,1.6488
4276035,33064,1.6649
4280035,34456,1.7350
4284033,34952,1.7600
4288037,33928,1.7084
4292033,32952,1.6593
4296034,33464,1.6851
4300035,34664,1.7455
4304034,35080,1.7664
4308030,34136,1.7189
4312034,33032,1.6633
4316036,33032,1.6633
4320033,34392,1.7318
4324030,34888,1.7568
4328036,33704,1.6972
4332033,32535,1.6383
4336034,33064,1.6649
4340031,34568,1.7407
4344032,35464,1.7858
4348036,33896,1.7068
4352033,32567,1.6399
4356034,32872,1.6553
4360033,34472,1.7358
4364034,35176,1.7713
4368030,33992,1.7117
4372037,33080,1.6657
4376036,32904,1.6569
4380030,34472,1.7358
4384033,34824,1.7536
4388036,33544,1.6891
4392034,32375,1.6302
4396036,32872,1.6553
4400032,34312,1.7278
4404032,34648,1.7447
4408037,33656,1.6947
4412031,32407,1.6318
4416033,32535,1.6383
4420035,34216,1.7229
4424031,34664,1.7455
4428035,33640,1.6939
4432030,32551,1.6391
4436031,32920,1.6577
4440033,34232,1.7237
4444035,34664,1.7455
4448031,33560,1.6899
4452036,32503,1.6367
4456035,32551,1.6391
4460036,34056,1.7149
4464035,34408,1.7326
4468034,33176,1.6706
4472036,31847,1.6036
4476032,32263,1.6246
4480031,33848,1.7044
4484034,34280,1.7262
4488034,33000,1.6617
4492030,31799,1.6012
4496030,32151,1.6190
4500030,33944,1.7092
4504030,34136,1.7189
4508032,33320,1.6778
4512034,31863,1.6045
4516037,32183,1.6206
4520031,33784,1.7012
4524034,34232,1.7237
4528036,33240,1.6738
4532034,32535,1.6383
4536038,32872,1.6553
4540032,34616,1.7431
4544033,35176,1.7713
4548034,34392,1.7318
4552031,33224,1.6730
4556035,33704,1.6972
4560034,35592,1.7922
4564031,36312,1.8285
4568037,35336,1.7793
4572036,34296,1.7270
4576033,34392,1.7318
4580030,36168,1.8212
4584036,36744,1.8502
4588036,35544,1.7898
4592030,34168,1.7205
4596034,33832,1.7036
4600036,34760,1.7503
4604036,34776,1.7511
4608032,32968,1.6601
4612035,31735,1.5980
4616035,31831,1.6028
4620032,33352,1.6794
4624036,33640,1.6939
4628037,32439,1.6335
4632034,31735,1.5980
4636033,31719,1.5972
4640029,33160,1.6698
4644031,33656,1.6947
4648033,32391,1.6310
4652033,31399,1.5811
4656032,31863,1.6045
4660037,33288,1.6762
4664031,33400,1.6818
4668038,32167,1.6198
4672034,31111,1.5666
4676034,31239,1.5730
4680035,32087,1.6157
4684028,31959,1.6093
4688034,30359,1.5287
4692034,29335,1.4772
4696032,30663,1.5440
4700030,33176,1.6706
4704036,35432,1.7842
4708034,37097,1.8680
4712032,39033,1.9655
4716034,41610,2.0953
4720035,45547,2.2935
4724038,45675,2.3000
4728034,42426,2.1364
4732030,37513,1.8890
4736031,34344,1.7294
4740037,33624,1.6931
4744032,32487,1.6359
4748033,30551,1.5384
4752034,29271,1.4739
4756036,30279,1.5247
4760035,32023,1.6125
4764034,32439,1.6335
4768031,31223,1.5722
4772034,29799,1.5005
4776034,30055,1.5134
4780031,31575,1.5900
4784036,32055,1.6141
4788032,30855,1.5537
4792033,29703,1.4957
4796031,30055,1.5134
4800037,31639,1.5932
4804031,32295,1.6262
4808037,31063,1.5642
4812031,30215,1.5215
4816030,30551,1.5384
4820034,31847,1.6036
4824029,32247,1.6238
4828036,31095,1.5658
4832029,30151,1.5182
4836031,30583,1.5400
4840031,32231,1.6230
4844037,32856,1.6545
4848037,31879,1.6053
4852033,30263,1.5239
4856035,30727,1.5473
4860034,32311,1.6270
4864035,32743,1.6488
4868035,31927,1.6077
4872036,30727,1.5473
4876036,31479,1.5851
4880032,33128,1.6682
4884030,33384,1.6810
4888030,32263,1.6246
4892037,31527,1.5875
4896037,31767,1.5996
4900037,33800,1.7020
4904031,34328,1.7286
4908032,33464,1.6851
4912032,32503,1.6367
4916032,32727,1.6480
4920036,34520,1.7382
4924033,34888,1.7568
4928031,33832,1.7036
4932034,33048,1.6641
4936035,33560,1.6899
4940033,34968,1.7608
4944030,35416,1.7834
4948034,34296,1.7270
4952035,33240,1.6738
4956037,33704,1.6972
4960032,35240,1.7745
4964032,35768,1.8011
4968033,34408,1.7326
4972033,33064,1.6649
4976036,33240,1.6738
4980034,34728,1.7487
4984029,34792,1.7519
4988032,33080,1.6657
4992037,31815,1.6020
4996030,32071,1.6149
5000037,33240,1.6738
5004034,33512,1.6875
5008034,31943,1.6085
5012030,30743,1.5481
5016031,30967,1.5593
5020032,32840,1.6537
5024030,33192,1.6714
5028033,32167,1.6198
5032034,30983,1.5601
5036031,31207,1.5714
5040034,32647,1.6439
5044034,32984,1.6609
5048033,31799,1.6012
5052036,30727,1.5473
5056036,31223,1.5722
5060033,32968,1.6601
5064036,33288,1.6762
5068029,32087,1.6157
5072029,30807,1.5513
5076035,31591,1.5908
5080035,33224,1.6730
5084038,33256,1.6746
5088035,31927,1.6077
5092035,30759,1.5489
5096032,31191,1.5706
5100035,32936,1.6585
5104030,33240,1.6738
5108030,31863,1.6045
5112031,30855,1.5537
5116031,31495,1.5859
5120031,33112,1.6673
5124033,32936,1.6585
5128032,31847,1.6036
5132031,30791,1.5505
5136035,31207,1.5714
5140035,32695,1.6463
5144034,33096,1.6665
5148038,31959,1.6093
5152032,30823,1.5521
5156032,31303,1.5763
5160036,32872,1.6553
5164031,33176,1.6706
5168035,31879,1.6053
5172035,30871,1.5545
5176029,31207,1.5714
5180034,32920,1.6577
5184029,33416,1.6827
5188029,32247,1.6238
5192035,30967,1.5593
5196034,31527,1.5875
5200035,32711,1.6472
5204032,33080,1.6657
5208034,31783,1.6004
5212034,30647,1.5432
5216033,31111,1.5666
5220037,32711,1.6472
5224035,33032,1.6633
5228036,32151,1.6190
5232034,30791,1.5505
5236037,31111,1.5666
5240028,32647,1.6439
5244033,33112,1.6673
5248032,31607,1.5916
5252030,31079,1.5650
5256033,31431,1.5827
5260033,32968,1.6601
5264032,33544,1.6891
5268033,32487,1.6359
5272032,31271,1.5746
5276035,31687,1.5956
5280031,33432,1.6835
5284034,33544,1.6891
5288030,32407,1.6318
5292035,31287,1.5754
5296031,31447,1.5835
5300035,33176,1.6706
5304031,33384,1.6810
5308035,32103,1.6165
5312033,30887,1.5553
5316032,31319,1.5771
5320037,32840,1.6537
5324037,32984,1.6609
5328035,31847,1.6036
5332036,30855,1.5537
5336034,31367,1.5795
5340031,32936,1.6585
5344032,33192,1.6714
5348035,31847,1.6036
5352030,30823,1.5521
5356035,31495,1.5859
5360035,33336,1.6786
5364033,33896,1.7068
5368033,32952,1.6593
5372035,31735,1.5980
5376033,32359,1.6294
5380032,33752,1.6996
5384033,33992,1.7117
5388034,33096,1.6665
5392034,32311,1.6270
5396033,33080,1.6657
5400031,34792,1.7519
5404031,35112,1.7681
5408032,33944,1.7092
5412033,33096,1.6665
5416032,33752,1.6996
5420036,35048,1.7648
5424038,35160,1.7705
5428029,33432,1.6835
5432035,32007,1.6117
5436034,31511,1.5867
5440036,33048,1.6641
5444031,33016,1.6625
5448034,31559,1.5891
5452029,30791,1.5505
5456033,31287,1.5754
5460032,32776,1.6504
5464030,32792,1.6512
5468035,31575,1.5900
5472031,30551,1.5384
5476032,31127,1.5674
5480034,32119,1.6173
5484035,32599,1.6415
5488032,31127,1.5674
5492036,30343,1.5279
5496035,30679,1.5448
5500033,32279,1.6254
5504032,32311,1.6270
5508036,31031,1.5626
5512031,29927,1.5070
5516033,30391,1.5303
5520032,31527,1.5875
5524036,31159,1.5690
5528035,29319,1.4764
5532030,28102,1.4151
5536032,29351,1.4780
5540032,31527,1.5875
5544030,33144,1.6690
5548030,34136,1.7189
5552030,36024,1.8140
5556034,39081,1.9679
5560029,43162,2.1734
5564030,44778,2.2548
5568035,41946,2.1122
5572035,38441,1.9357
5576036,35992,1.8124
5580031,34632,1.7439
5584032,33272,1.6754
5588035,30759,1.5489
5592031,29095,1.4651
5596035,29463,1.4836
5600034,31175,1.5698
5604036,31671,1.5948
5608034,30695,1.5456
5612033,29671,1.4941
5616035,30103,1.5158
5620034,31815,1.6020
5624032,31831,1.6028
5628030,30775,1.5497
5632031,29719,1.4965
5636032,30407,1.5311
5640033,32183,1.6206
5644034,32455,1.6343
5648033,31095,1.5658
5652030,30215,1.5215
5656032,31047,1.5634
5660035,32455,1.6343
5664037,32455,1.6343
5668033,31255,1.5738
5672030,30487,1.5352
5676036,30919,1.5569
5680035,32727,1.6480
5684034,32776,1.6504
5688032,31463,1.5843
5692035,30567,1.5392
5696030,31639,1.5932
5700033,32872,1.6553
5704031,33192,1.6714
5708033,32199,1.6214
5712035,30983,1.5601
5716034,31575,1.5900
5720031,33304,1.6770
5724035,33544,1.6891
5728032,32471,1.6351
5732032,31623,1.5924
5736037,32423,1.6327
5740031,34360,1.7302
5744035,34552,1.7399
5748032,33288,1.6762
5752030,32455,1.6343
5756030,33080,1.6657
5760034,34888,1.7568
5764035,34984,1.7616
5768037,33864,1.7052
5772036,32984,1.6609
5776031,33720,1.6980
5780031,35208,1.7729
5784031,35432,1.7842
5788030,34280,1.7262
5792031,33240,1.6738
5796033,34008,1.7125
5800033,35192,1.7721
5804030,35384,1.7818
5808035,33768,1.7004
5812036,32439,1.6335
5816036,33048,1.6641
5820036,34360,1.7302
5824030,34088,1.7165
5828029,32551,1.6391
5832031,31527,1.5875
5836032,32183,1.6206
5840037,33592,1.6915
5844036,33304,1.6770
5848035,32071,1.6149
5852033,30791,1.5505
5856036,31527,1.5875
5860035,33096,1.6665
5864036,33576,1.6907
5868034,32167,1.6198
5872029,30791,1.5505
5876033,31191,1.5706
5880034,32888,1.6561
5884032,32936,1.6585
5888035,31703,1.5964
5892032,30695,1.5456
5896035,31607,1.5916
5900033,32743,1.6488
5904033,33064,1.6649
5908036,31943,1.6085
5912031,31255,1.5738
5916036,31559,1.5891
5920037,33352,1.6794
5924030,33752,1.6996
5928034,32535,1.6383
5932032,31799,1.6012
5936030,32247,1.6238
5940033,34072,1.7157
5944034,34792,1.7519
5948034,33912,1.7076
5952031,34152,1.7197
5956033,36504,1.8382
5960035,40233,2.0259
5964032,43386,2.1847
5968034,45547,2.2935
5972036,48235,2.4289
5976036,52044,2.6207
5980035,55565,2.7980
5984037,57325,2.8866
5988035,57005,2.8705
5992033,56077,2.8237
5996035,56477,2.8439
6000033,58958,2.9688
6004034,60446,3.0437
6008035,59582,3.0002
6012033,57037,2.8721
6016028,55213,2.7802
6020035,54765,2.7577
6024033,52380,2.6376
6028034,48843,2.4595
6032031,45163,2.2742
6036033,43242,2.1774
6040036,41594,2.0945
6044033,38185,1.9228
6048033,32167,1.6198
6052032,27110,1.3651
6056032,24646,1.2410
6060033,24277,1.2225
6064034,23621,1.1894
6068032,22277,1.1218
6072036,21285,1.0718
6076031,21909,1.1032
6080031,23173,1.1669
6084032,23125,1.1645
6088035,21573,1.0863
6092030,20549,1.0347
6096033,21477,1.0815
6100029,22661,1.1411
6104031,22789,1.1475
6108032,21397,1.0774
6112033,20356,1.0250
6116035,20901,1.0525
6120031,22693,1.1427
6124033,22453,1.1306
6128034,20949,1.0549
6132033,19988,1.0065
6136036,20372,1.0258
6140033,21845,1.1000
6144034,21845,1.1000
6148033,20324,1.0234
6152030,19108,0.9622
6156034,19476,0.9807
6160036,20821,1.0484
6164037,21269,1.0710
6168034,19332,0.9735
6172035,18148,0.9138
6176030,18948,0.9541
6180031,20164,1.0154
6184034,20308,1.0226
6188034,19108,0.9622
6192032,17844,0.8985
6196033,18580,0.9356
6200031,19956,1.0049
6204033,20420,1.0282
6208033,19284,0.9710
6212029,18628,0.9380
6216033,19540,0.9839
6220035,21685,1.0919
6224031,22693,1.1427
6228036,22661,1.1411
6232031,22549,1.1354
6236032,23829,1.1999
6240036,26294,1.3240
6244035,27174,1.3683
6248029,26934,1.3563
6252035,27190,1.3691
6256035,29127,1.4667
6260033,31991,1.6109
6264033,32679,1.6455
6268032,32039,1.6133
6272033,31495,1.5859
6276030,33224,1.6730
6280034,35144,1.7697
6284030,35720,1.7987
6288037,33944,1.7092
6292029,32824,1.6528
6296031,33112,1.6673
6300032,34232,1.7237
6304035,33928,1.7084
6308033,32471,1.6351
6312033,31511,1.5867
6316032,32295,1.6262
6320036,33528,1.6883
6324035,33416,1.6827
6328035,32167,1.6198
6332033,31271,1.5746
6336035,31975,1.6101
6340035,33704,1.6972
6344037,33576,1.6907
6348031,32279,1.6254
6352031,31303,1.5763
6356032,31799,1.6012
6360034,33608,1.6923
6364035,33368,1.6802
6368038,32103,1.6165
6372029,31543,1.5883
6376034,31671,1.5948
6380032,33112,1.6673
6384034,33480,1.6859
6388029,32151,1.6190
6392036,31191,1.5706
6396030,32199,1.6214
6400037,33688,1.6964
6404035,33512,1.6875
6408032,32439,1.6335
6412032,31447,1.5835
6416030,31815,1.6020
6420035,33336,1.6786
6424031,33528,1.6883
6428035,32263,1.6246
6432031,31287,1.5754
6436034,32039,1.6133
6440037,33880,1.7060
6444033,34088,1.7165
6448037,32407,1.6318
6452037,31271,1.5746
6456036,31991,1.6109
6460034,33448,1.6843
6464032,33592,1.6915
6468032,32359,1.6294
6472028,31639,1.5932
6476031,32087,1.6157
6480032,33528,1.6883
6484033,33560,1.6899
6488034,32215,1.6222
6492030,31335,1.5779
6496036,32215,1.6222
6500034,34136,1.7189
6504033,34216,1.7229
6508035,32984,1.6609
6512035,32007,1.6117
6516031,32647,1.6439
6520033,34232,1.7237
6524032,34312,1.7278
6528030,33048,1.6641
6532032,32039,1.6133
6536035,32711,1.6472
6540029,34216,1.7229
6544033,34344,1.7294
6548037,33128,1.6682
6552033,32199,1.6214
6556034,32968,1.6601
6560032,34472,1.7358
6564035,34568,1.7407
6568032,33480,1.6859
6572037,32295,1.6262
6576033,32936,1.6585
6580032,34360,1.7302
6584035,34456,1.7350
6588029,33208,1.6722
6592035,32375,1.6302
6596033,33224,1.6730
6600036,34088,1.7165
6604030,33736,1.6988
6608033,31719,1.5972
6612030,30775,1.5497
6616031,32135,1.6182
6620035,34552,1.7399
6624035,36344,1.8301
6628035,37865,1.9067
6632031,39673,1.9977
6636036,42762,2.1533
6640030,46299,2.3314
6644034,45323,2.2822
6648034,41898,2.1098
6652033,37929,1.9099
6656032,35352,1.7801
6660029,34600,1.7423
6664030,33096,1.6665
6668031,30999,1.5609
6672036,30455,1.5336
6676036,31959,1.6093
6680032,33832,1.7036
6684037,34200,1.7221
6688031,33352,1.6794
6692035,32167,1.6198
6696033,32776,1.6504
6700031,34200,1.7221
6704034,34168,1.7205
6708031,32776,1.6504
6712030,31863,1.6045
6716035,32439,1.6335
6720032,33848,1.7044
6724036,33864,1.7052
6728032,32503,1.6367
6732035,31575,1.5900
6736030,32391,1.6310
6740036,33768,1.7004
6744033,33928,1.7084
6748035,32567,1.6399
6752035,31879,1.6053
6756031,32343,1.6286
6760035,33912,1.7076
6764033,33992,1.7117
6768037,32743,1.6488
6772032,31751,1.5988
6776034,32711,1.6472
6780030,34136,1.7189
6784037,34232,1.7237
6788031,32920,1.6577
6792033,32023,1.6125
6796030,32872,1.6553
6800033,34616,1.7431
6804031,34680,1.7463
6808037,33432,1.6835
6812035,32840,1.6537
6816033,33928,1.7084
6820033,35464,1.7858
6824038,35704,1.7979
6828039,34504,1.7374
6832035,33816,1.7028
6836034,34488,1.7366
6840031,36024,1.8140
6844032,36072,1.8164
6848035,34968,1.7608
6852028,34136,1.7189
6856036,34904,1.7576
6860031,36792,1.8527
6864035,36536,1.8398
6868032,35240,1.7745
6872033,33992,1.7117
6876030,34504,1.7374
6880034,35736,1.7995
6884034,35512,1.7882
6888036,34232,1.7237
6892031,32727,1.6480
6896031,33112,1.6673
6900032,34216,1.7229
6904033,34200,1.7221
6908037,32647,1.6439
6912032,31591,1.5908
6916030,32567,1.6399
6920036,33752,1.6996
6924036,33592,1.6915
6928029,32167,1.6198
6932031,31143,1.5682
6936036,31911,1.6069
6940033,33320,1.6778
6944035,33240,1.6738
6948031,31943,1.6085
6952035,31031,1.5626
6956035,32103,1.6165
6960029,33080,1.6657
6964030,33320,1.6778
6968035,31575,1.5900
6972029,30807,1.5513
6976030,31671,1.5948
6980037,33384,1.6810
6984035,33768,1.7004
6988034,32487,1.6359
6992031,31799,1.6012
6996033,32856,1.6545
7000031,34408,1.7326
7004036,34552,1.7399
7008029,34072,1.7157
7012036,34200,1.7221
7016031,36536,1.8398
7020036,40537,2.0412
7024034,43418,2.1863
7028032,45643,2.2983
7032034,48459,2.4401
7036033,52172,2.6271
7040033,55533,2.7964
7044031,56941,2.8673
7048034,56077,2.8237
7052031,55261,2.7827
7056033,56477,2.8439
7060037,59006,2.9712
7064032,59934,3.0180
7068034,58510,2.9463
7072031,55357,2.7875
7076035,54061,2.7222
7080035,53549,2.6964
7084038,51564,2.5965
7088036,47819,2.4079
7092034,44490,2.2403
7096036,42682,2.1492
7100033,41354,2.0824
7104031,37609,1.8938
7108031,32279,1.6254
7112034,27782,1.3990
7116031,25942,1.3063
7120031,25542,1.2862
7124033,25142,1.2660
7128037,24325,1.2249
7132036,23605,1.1886
7136035,24101,1.2136
7140035,25158,1.2668
7144031,25190,1.2684
7148036,23829,1.1999
7152035,22789,1.1475
7156034,23317,1.1741
7160036,24357,1.2265
7164034,23861,1.2015
7168032,21749,1.0952
7172032,20244,1.0194
7176033,20677,1.0412
7180032,21989,1.1073
7184031,21765,1.0960
7188029,20292,1.0218
7192036,19204,0.9670
7196034,20132,1.0137
7200032,21221,1.0686
7204034,21093,1.0621
7208036,19460,0.9799
7212033,18260,0.9195
7216031,18916,0.9525
7220031,20004,1.0073
7224034,20164,1.0154
7228033,18244,0.9187
7232033,17348,0.8736
7236031,18148,0.9138
7240037,19348,0.9743
7244029,19092,0.9614
7248035,17572,0.8848
7252034,16820,0.8470
7256034,17620,0.8873
7260035,19300,0.9718
7264035,19380,0.9759
7268034,18196,0.9163
7272035,17636,0.8881
7276034,18916,0.9525
7280032,21045,1.0597
7284034,21797,1.0976
7288035,21109,1.0629
7292029,21045,1.0597
7296030,22501,1.1330
7300035,24902,1.2539
7304033,25846,1.3015
7308032,25606,1.2894
7312030,25750,1.2966
7316034,27350,1.3772
7320029,29623,1.4917
7324031,30391,1.5303
7328033,29751,1.4981
7332031,29703,1.4957
7336031,30823,1.5521
7340032,32583,1.6407
7344032,33000,1.6617
7348034,32183,1.6206
7352031,31335,1.5779
7356037,32343,1.6286
7360036,34088,1.7165
7364037,34008,1.7125
7368035,32776,1.6504
7372036,31527,1.5875
7376036,32231,1.6230
7380032,33672,1.6955
7384036,33832,1.7036
7388035,32711,1.6472
7392034,31703,1.5964
7396032,32727,1.6480
7400032,34296,1.7270
7404036,34376,1.7310
7408031,33128,1.6682
7412029,32215,1.6222
7416038,32952,1.6593
7420030,34376,1.7310
7424034,34520,1.7382
7428033,33192,1.6714
7432037,32183,1.6206
7436034,32888,1.6561
7440038,34216,1.7229
7444034,34104,1.7173
7448031,33080,1.6657
7452031,32103,1.6165
7456031,32968,1.6601
7460037,34248,1.7246
7464035,33992,1.7117
7468031,32711,1.6472
7472036,32071,1.6149
7476032,32984,1.6609
7480028,34232,1.7237
7484033,34152,1.7197
7488037,33000,1.6617
7492032,32375,1.6302
7496035,32920,1.6577
7500038,34568,1.7407
7504032,34344,1.7294
7508038,33128,1.6682
7512029,32407,1.6318
7516034,33288,1.6762
7520030,34840,1.7544
7524035,34472,1.7358
7528034,33368,1.6802
7532029,32423,1.6327
7536032,33336,1.6786
7540031,34952,1.7600
7544033,34456,1.7350
7548035,32984,1.6609
7552032,32487,1.6359
7556029,33352,1.6794
7560035,34776,1.7511
7564032,34840,1.7544
7568030,33384,1.6810
7572032,32487,1.6359
7576029,33720,1.6980
7580031,34904,1.7576
7584033,34632,1.7439
7588033,33192,1.6714
7592031,32311,1.6270
7596029,33208,1.6722
7600030,35112,1.7681
7604035,34664,1.7455
7608030,33448,1.6843
7612035,32743,1.6488
7616033,33704,1.6972
7620031,35496,1.7874
7624037,35000,1.7624
7628037,33560,1.6899
7632035,32583,1.6407
7636036,33416,1.6827
7640030,34760,1.7503
7644033,34616,1.7431
7648034,33176,1.6706
7652037,32391,1.6310
7656034,33448,1.6843
7660033,35016,1.7632
7664032,35032,1.7640
7668031,33592,1.6915
7672037,32904,1.6569
7676031,33896,1.7068
7680033,35160,1.7705
7684032,35032,1.7640
7688031,33880,1.7060
7692031,32663,1.6447
7696035,33576,1.6907
7700036,35032,1.7640
7704035,34888,1.7568
7708031,33624,1.6931
7712033,33016,1.6625
7716036,33624,1.6931
7720032,34888,1.7568
7724032,34888,1.7568
7728033,33256,1.6746
7732033,32455,1.6343
7736036,33176,1.6706
7740037,34760,1.7503
7744035,34424,1.7334
7748038,33272,1.6754
7752034,32952,1.6593
7756033,33848,1.7044
7760030,35272,1.7761
7764035,34936,1.7592
7768032,33672,1.6955
7772032,32471,1.6351
7776031,33336,1.6786
7780035,34648,1.7447
7784030,34504,1.7374
7788034,33176,1.6706
7792032,32471,1.6351
7796034,33432,1.6835
7800033,34920,1.7584
7804031,34648,1.7447
7808037,33320,1.6778
7812032,32647,1.6439
7816028,33608,1.6923
7820031,34488,1.7366
7824031,34120,1.7181
7828036,32679,1.6455
7832029,32135,1.6182
7836037,33256,1.6746
7840035,34568,1.7407
7844030,34696,1.7471
7848035,33288,1.6762
7852036,32087,1.6157
7856033,32904,1.6569
7860034,34296,1.7270
7864030,34216,1.7229
7868030,32920,1.6577
7872032,32071,1.6149
7876036,32856,1.6545
7880031,34504,1.7374
7884032,34184,1.7213
7888033,32856,1.6545
7892035,32087,1.6157
7896037,33192,1.6714
7900031,34680,1.7463
7904034,34280,1.7262
7908032,33080,1.6657
7912032,31991,1.6109
7916032,33032,1.6633
7920032,34184,1.7213
7924032,34248,1.7246
7928034,32647,1.6439
7932030,31863,1.6045
7936036,32824,1.6528
7940031,34248,1.7246
7944030,34120,1.7181
7948035,32551,1.6391
7952036,31703,1.5964
7956035,32663,1.6447
7960032,34088,1.7165
7964030,34040,1.7141
7968035,32695,1.6463
7972034,31991,1.6109
7976034,33016,1.6625
7980031,34712,1.7479
7984035,34696,1.7471
7988033,33640,1.6939
7992035,32711,1.6472
7996029,33736,1.6988
8000036,35576,1.7914
8004036,35480,1.7866
8008032,34568,1.7407
8012033,33864,1.7052
8016030,34760,1.7503
8020032,36200,1.8228
8024028,36376,1.8317
8028035,35096,1.7673
8032032,33784,1.7012
8036032,34328,1.7286
8040029,35080,1.7664
8044036,34104,1.7173
8048030,32311,1.6270
8052035,31239,1.5730
8056031,31991,1.6109
8060031,33336,1.6786
8064035,33176,1.6706
8068031,31879,1.6053
8072037,30983,1.5601
8076030,31799,1.6012
8080035,33048,1.6641
8084035,32776,1.6504
8088031,31527,1.5875
8092035,31111,1.5666
8096029,31783,1.6004
8100030,33112,1.6673
8104036,32904,1.6569
8108030,31479,1.5851
8112037,30759,1.5489
8116035,31735,1.5980
8120036,32872,1.6553
8124038,32215,1.6222
8128036,30103,1.5158
8132031,28662,1.4433
8136032,29671,1.4941
8140033,32247,1.6238
8144030,32936,1.6585
8148034,33288,1.6762
8152036,35160,1.7705
8156032,38825,1.9550
8160033,42538,2.1420
8164035,44010,2.2161
8168029,42074,2.1186
8172037,39385,1.9832
8176035,37881,1.9075
8180034,36376,1.8317
8184033,33720,1.6980
8188036,31047,1.5634
8192031,29223,1.4715
8196034,29783,1.4997
8200037,31399,1.5811
8204031,32039,1.6133
8208033,30439,1.5327
8212036,29783,1.4997
8216034,30871,1.5545
8220034,32167,1.6198
8224034,32071,1.6149
8228034,30567,1.5392
8232034,29687,1.4949
8236034,30599,1.5408
8240036,32471,1.6351
8244035,31911,1.6069
8248032,30695,1.5456
8252031,29975,1.5094
8256035,30807,1.5513
8260031,32247,1.6238
8264035,32023,1.6125
8268031,30871,1.5545
8272031,30375,1.5295
8276031,31383,1.5803
8280036,32711,1.6472
8284035,32487,1.6359
8288031,31191,1.5706
8292028,30471,1.5344
8296034,31575,1.5900
8300030,32936,1.6585
8304033,33032,1.6633
8308030,31607,1.5916
8312034,30791,1.5505
8316037,31751,1.5988
8320031,33224,1.6730
8324034,33048,1.6641
8328035,31847,1.6036
8332033,31623,1.5924
8336034,32455,1.6343
8340030,33976,1.7109
8344030,33752,1.6996
8348031,32727,1.6480
8352033,31991,1.6109
8356031,33160,1.6698
8360033,34648,1.7447
8364029,34616,1.7431
8368032,33240,1.6738
8372036,32439,1.6335
8376034,33560,1.6899
8380037,35048,1.7648
8384031,34984,1.7616
8388035,33640,1.6939
8392035,33032,1.6633
8396032,33944,1.7092
8400037,35240,1.7745
8404035,35032,1.7640
8408032,33752,1.6996
8412031,33256,1.6746
8416029,34248,1.7246
8420036,35128,1.7689
8424033,34632,1.7439
8428033,33064,1.6649
8432035,32183,1.6206
8436035,32888,1.6561
8440035,33880,1.7060
8444037,33288,1.6762
8448032,31639,1.5932
8452031,31063,1.5642
8456030,32167,1.6198
8460032,33512,1.6875
8464036,32824,1.6528
8468037,31527,1.5875
8472031,30839,1.5529
8476030,31927,1.6077
8480032,33384,1.6810
8484031,32984,1.6609
8488032,31575,1.5900
8492031,30615,1.5416
8496033,31799,1.6012
8500035,32647,1.6439
8504034,32615,1.6423
8508029,31367,1.5795
8512036,30663,1.5440
8516030,31591,1.5908
8520030,32984,1.6609
8524035,32840,1.6537
8528036,31367,1.5795
8532036,30759,1.5489
8536035,31687,1.5956
8540035,32936,1.6585
8544033,32727,1.6480
8548033,31063,1.5642
8552036,30407,1.5311
8556034,31591,1.5908
8560032,33032,1.6633
8564033,32599,1.6415
8568034,31079,1.5650
8572036,30455,1.5336
8576035,31591,1.5908
8580031,33384,1.6810
8584029,32808,1.6520
8588037,31415,1.5819
8592036,30775,1.5497
8596032,31751,1.5988
8600034,33000,1.6617
8604037,32711,1.6472
8608030,31559,1.5891
8612036,30919,1.5569
8616035,32199,1.6214
8620030,33000,1.6617
8624031,32840,1.6537
8628033,31479,1.5851
8632037,30871,1.5545
8636035,31735,1.5980
8640031,32824,1.6528
8644035,32455,1.6343
8648035,31127,1.5674
8652034,30311,1.5263
8656031,31367,1.5795
8660033,32695,1.6463
8664034,32856,1.6545
8668036,31447,1.5835
8672031,30695,1.5456
8676033,31575,1.5900
8680031,32743,1.6488
8684034,32487,1.6359
8688032,31431,1.5827
8692031,30935,1.5577
8696035,32247,1.6238
8700036,33336,1.6786
8704036,33160,1.6698
8708034,31863,1.6045
8712036,30967,1.5593
8716030,31687,1.5956
8720034,32984,1.6609
8724036,32695,1.6463
8728031,31591,1.5908
8732032,30983,1.5601
8736034,32023,1.6125
8740033,33400,1.6818
8744032,33064,1.6649
8748035,31559,1.5891
8752033,30791,1.5505
8756032,31687,1.5956
8760035,33256,1.6746
8764035,32968,1.6601
8768036,31671,1.5948
8772034,31127,1.5674
8776033,32327,1.6278
8780033,33864,1.7052
8784030,33944,1.7092
8788031,32343,1.6286
8792034,31815,1.6020
8796031,33064,1.6649
8800034,34168,1.7205
8804033,34088,1.7165
8808034,33240,1.6738
8812032,32776,1.6504
8816037,34328,1.7286
8820030,35800,1.8027
8824036,35400,1.7826
8828033,34280,1.7262
8832031,33736,1.6988
8836033,34600,1.7423
8840031,35304,1.7777
8844031,34488,1.7366
8848031,32647,1.6439
8852036,31351,1.5787
8856034,32023,1.6125
8860029,32952,1.6593
8864034,32615,1.6423
8868033,31319,1.5771
8872034,30631,1.5424
8876030,31671,1.5948
8880032,32888,1.6561
8884030,32551,1.6391
8888029,31159,1.5690
8892036,30551,1.5384
8896036,31751,1.5988
8900036,33192,1.6714
8904035,32487,1.6359
8908032,31191,1.5706
8912038,30791,1.5505
8916036,31399,1.5811
8920035,32984,1.6609
8924030,32583,1.6407
8928030,31111,1.5666
8932032,30135,1.5174
8936034,31319,1.5771
8940036,32103,1.6165
8944030,30967,1.5593
8948035,29207,1.4707
8952035,28662,1.4433
8956030,30311,1.5263
8960035,32792,1.6512
8964031,34760,1.7503
8968036,36376,1.8317
8972031,37849,1.9059
8976037,41674,2.0985
8980032,44042,2.2177
8984034,42154,2.1227
8988037,38473,1.9373
8992030,36024,1.8140
8996034,34520,1.7382
9000037,33704,1.6972
9004038,31895,1.6061
9008034,29671,1.4941
9012032,28871,1.4538
9016034,30055,1.5134
9020031,32247,1.6238
9024031,32071,1.6149
9028032,30599,1.5408
9032035,29831,1.5021
9036030,30567,1.5392
9040038,31911,1.6069
9044033,31863,1.6045
9048033,30631,1.5424
9052034,29991,1.5102
9056030,31047,1.5634
9060035,32776,1.6504
9064037,32055,1.6141
9068030,30647,1.5432
9072034,30391,1.5303
9076030,31271,1.5746
9080037,32487,1.6359
9084030,32151,1.6190
9088035,30983,1.5601
9092031,30775,1.5497
9096033,31495,1.5859
9100034,32872,1.6553
9104033,32423,1.6327
9108033,31127,1.5674
9112032,30647,1.5432
9116037,31895,1.6061
9120035,33352,1.6794
9124032,33240,1.6738
9128032,31767,1.5996
9132032,31015,1.5618
9136035,32407,1.6318
9140033,33576,1.6907
9144037,33192,1.6714
9148034,32071,1.6149
9152033,31639,1.5932
9156035,32904,1.6569
9160035,34232,1.7237
9164033,34056,1.7149
9168032,32727,1.6480
9172034,32423,1.6327
9176031,33784,1.7012
9180034,35208,1.7729
9184037,34728,1.7487
9188035,33352,1.6794
9192035,32792,1.6512
9196035,33944,1.7092
9200031,35640,1.7946
9204036,35576,1.7914
9208032,33832,1.7036
9212034,33208,1.6722
9216032,34136,1.7189
9220030,35288,1.7769
9224034,34952,1.7600
9228033,33480,1.6859
9232030,32519,1.6375
9236036,33224,1.6730
9240034,34152,1.7197
9244034,33400,1.6818
9248035,31911,1.6069
9252030,31175,1.5698
9256035,32039,1.6133
9260036,33144,1.6690
9264034,32615,1.6423
9268033,31463,1.5843
9272038,30967,1.5593
9276034,31639,1.5932
9280029,33016,1.6625
9284031,32920,1.6577
9288035,31303,1.5763
9292032,30791,1.5505
9296035,32183,1.6206
9300036,33224,1.6730
9304032,32936,1.6585
9308032,31191,1.5706
9312035,31095,1.5658
9316033,31799,1.6012
9320032,33240,1.6738
9324036,32647,1.6439
9328035,31639,1.5932
9332032,30903,1.5561
9336032,31975,1.6101
9340037,33064,1.6649
9344035,32583,1.6407
9348037,31159,1.5690
9352031,30503,1.5360
9356035,31847,1.6036
9360031,33272,1.6754
9364037,33080,1.6657
9368033,31735,1.5980
9372035,31319,1.5771
9376036,32711,1.6472
9380033,33976,1.7109
9384031,33688,1.6964
9388033,32567,1.6399
9392035,32055,1.6141
9396033,33656,1.6947
9400035,35864,1.8059
9404031,37305,1.8785
9408037,37881,1.9075
9412037,39913,2.0098
9416034,44442,2.2379
9420035,48971,2.4659
9424036,51804,2.6086
9428035,52716,2.6545
9432035,53389,2.6884
9436038,55453,2.7923
9440034,57213,2.8809
9444035,56733,2.8568
9448035,55757,2.8076
9452033,56189,2.8294
9456031,57870,2.9140
9460032,58798,2.9608
9464035,56461,2.8431
9468030,52780,2.6577
9472031,49868,2.5111
9476033,48747,2.4546
9480035,47483,2.3910
9484034,44906,2.2612
9488035,41002,2.0646
9492031,36921,1.8591
9496031,33848,1.7044
9500031,31463,1.5843
9504035,28390,1.4296
9508031,24630,1.2402
9512033,23109,1.1636
9516031,23077,1.1620
9520036,24069,1.2120
9524031,23957,1.2063
9528031,22629,1.1395
9532032,21829,1.0992
9536036,23061,1.1612
9540038,24261,1.2217
9544034,23429,1.1798
9548036,21909,1.1032
9552037,21093,1.0621
9556030,21989,1.1073
9560032,23109,1.1636
9564028,22997,1.1580
9568036,21333,1.0742
9572036,20533,1.0339
9576029,21381,1.0766
9580035,22389,1.1274
9584030,22293,1.1226
9588033,20565,1.0355
9592032,19684,0.9912
9596035,20949,1.0549
9600032,21733,1.0944
9604035,21589,1.0871
9608030,19908,1.0025
9612037,19220,0.9678
9616033,20180,1.0162
9620036,21317,1.0734
9624035,20517,1.0331
9628031,18948,0.9541
9632031,18404,0.9267
9636030,19620,0.9880
9640030,21221,1.0686
9644038,20949,1.0549
9648036,19652,0.9896
9652034,19204,0.9670
9656033,20597,1.0372
9660038,22197,1.1177
9664034,22277,1.1218
9668032,22053,1.1105
9672033,22101,1.1129
9676030,23893,1.2031
9680035,25926,1.3055
9684031,26470,1.3329
9688032,26326,1.3256
9692038,26502,1.3345
9696031,29223,1.4715
9700031,31015,1.5618
9704030,31287,1.5754
9708031,29943,1.5078
9712034,29463,1.4836
9716038,30983,1.5601
9720035,32487,1.6359
9724032,32295,1.6262
9728034,31447,1.5835
9732031,30999,1.5609
9736030,32231,1.6230
9740033,33560,1.6899
9744035,33288,1.6762
9748030,31911,1.6069
9752031,31319,1.5771
9756029,32727,1.6480
9760034,33800,1.7020
9764033,33432,1.6835
9768033,31927,1.6077
9772035,31223,1.5722
9776033,32263,1.6246
9780034,33432,1.6835
9784036,33208,1.6722
9788037,31975,1.6101
9792038,31191,1.5706
9796031,32808,1.6520
9800031,33944,1.7092
9804034,33528,1.6883
9808036,31703,1.5964
9812034,31143,1.5682
9816030,32311,1.6270
9820034,33928,1.7084
9824030,33080,1.6657
9828033,31687,1.5956
9832031,31287,1.5754
9836031,32647,1.6439
9840035,33928,1.7084
9844034,33416,1.6827
9848034,31991,1.6109
9852033,31303,1.5763
9856031,32375,1.6302
9860033,33992,1.7117
9864035,33576,1.6907
9868032,32151,1.6190
9872032,31639,1.5932
9876031,32583,1.6407
9880033,34056,1.7149
9884031,33400,1.6818
9888036,32135,1.6182
9892035,31879,1.6053
9896033,32984,1.6609
9900036,33944,1.7092
9904030,33672,1.6955
9908036,32263,1.6246
9912036,31719,1.5972
9916036,32984,1.6609
9920033,34312,1.7278
9924035,34152,1.7197
9928032,32631,1.6431
9932033,32039,1.6133
9936036,33256,1.6746
9940029,34568,1.7407
9944031,34024,1.7133
9948030,32583,1.6407
9952037,32103,1.6165
9956031,33368,1.6802
9960034,35000,1.7624
9964034,34168,1.7205
9968035,32647,1.6439
9972035,32631,1.6431
9976033,33768,1.7004
9980035,34824,1.7536
9984029,34264,1.7254
9988029,32727,1.6480
9992035,32247,1.6238
9996031,33384,1.6810
10000031,34664,1.7455
10004035,34312,1.7278
10008034,33048,1.6641
10012034,32359,1.6294
10016032,33512,1.6875
10020030,34952,1.7600
10024033,34568,1.7407
10028031,33272,1.6754
10032030,32423,1.6327
10036028,33576,1.6907
10040033,34824,1.7536
10044032,34472,1.7358
10048031,33112,1.6673
10052030,32567,1.6399
10056036,33560,1.6899
10060032,34792,1.7519
10064031,34488,1.7366
10068033,33208,1.6722
10072035,32743,1.6488
10076031,34184,1.7213
10080032,35240,1.7745
10084032,34584,1.7415
10088034,33528,1.6883
10092032,32920,1.6577
10096034,34120,1.7181
10100034,35352,1.7801
10104035,34744,1.7495
10108037,33352,1.6794
10112036,32904,1.6569
10116036,34024,1.7133
10120035,35016,1.7632
10124036,34664,1.7455
10128035,33432,1.6835
10132031,33032,1.6633
10136031,34168,1.7205
10140037,35320,1.7785
10144032,34568,1.7407
10148032,33144,1.6690
10152036,32711,1.6472
10156032,34104,1.7173
10160031,35224,1.7737
10164034,34360,1.7302
10168038,32808,1.6520
10172033,32327,1.6278
10176031,33672,1.6955
10180032,34760,1.7503
10184031,34216,1.7229
10188037,32727,1.6480
10192035,32247,1.6238
10196030,33592,1.6915
10200036,34536,1.7391
10204033,33976,1.7109
10208035,32727,1.6480
10212037,32167,1.6198
10216036,33640,1.6939
10220032,34904,1.7576
10224034,34264,1.7254
10228029,32952,1.6593
10232030,32247,1.6238
10236035,33416,1.6827
10240029,34872,1.7560
10244035,33928,1.7084
10248030,32727,1.6480
10252037,32039,1.6133
10256032,33176,1.6706
10260034,34600,1.7423
10264036,34104,1.7173
10268036,32423,1.6327
10272035,31815,1.6020
10276038,32984,1.6609
10280033,34088,1.7165
10284030,33464,1.6851
10288034,32151,1.6190
10292032,31799,1.6012
10296030,33000,1.6617
10300035,34424,1.7334
10304031,33592,1.6915
10308035,32263,1.6246
10312033,32231,1.6230
10316032,33080,1.6657
10320037,34216,1.7229
10324037,33736,1.6988
10328037,32327,1.6278
10332031,31959,1.6093
10336034,33064,1.6649
10340036,34232,1.7237
10344034,33704,1.6972
10348035,32423,1.6327
10352032,31927,1.6077
10356034,33112,1.6673
10360030,34216,1.7229
10364035,33736,1.6988
10368032,32391,1.6310
10372032,31895,1.6061
10376032,33192,1.6714
10380034,34264,1.7254
10384038,33624,1.6931
10388034,32231,1.6230
10392036,32103,1.6165
10396035,33192,1.6714
10400033,34424,1.7334
10404030,33640,1.6939
10408033,32311,1.6270
10412032,31719,1.5972
10416033,33016,1.6625
10420036,34472,1.7358
10424032,33800,1.7020
10428035,32455,1.6343
10432034,32023,1.6125
10436035,33096,1.6665
10440035,34408,1.7326
10444030,33608,1.6923
10448036,32295,1.6262
10452032,31799,1.6012
10456035,32984,1.6609
10460033,34216,1.7229
10464035,33800,1.7020
10468031,32247,1.6238
10472030,32039,1.6133
10476031,32936,1.6585
10480030,34184,1.7213
10484036,33560,1.6899
10488032,32359,1.6294
10492031,31751,1.5988
10496031,33000,1.6617
10500037,34152,1.7197
10504036,33608,1.6923
10508032,32231,1.6230
10512032,31735,1.5980
10516035,32968,1.6601
10520036,34184,1.7213
10524033,33880,1.7060
10528032,33080,1.6657
10532033,32423,1.6327
10536033,33864,1.7052
10540037,35176,1.7713
10544032,34680,1.7463
10548035,33368,1.6802
10552033,33000,1.6617
10556029,34600,1.7423
10560032,35976,1.8116
10564038,35720,1.7987
10568036,34456,1.7350
10572036,34152,1.7197
10576037,35384,1.7818
10580037,36728,1.8494
10584034,36040,1.8148
10588033,34536,1.7391
10592031,33240,1.6738
10596036,33848,1.7044
10600034,34648,1.7447
10604035,33848,1.7044
10608035,31975,1.6101
10612030,31415,1.5819
10616035,32551,1.6391
10620036,34056,1.7149
10624027,33224,1.6730
10628030,31703,1.5964
10632031,31239,1.5730
10636032,32167,1.6198
10640035,33208,1.6722
10644034,32471,1.6351
10648033,31015,1.5618
10652033,30519,1.5368
10656033,31703,1.5964
10660033,32920,1.6577
10664032,32391,1.6310
10668030,31111,1.5666
10672033,30583,1.5400
10676034,31511,1.5867
10680034,32167,1.6198
10684037,30967,1.5593
10688034,29367,1.4788
10692035,29431,1.4820
10696031,31591,1.5908
10700038,34488,1.7366
10704031,36088,1.8172
10708035,37545,1.8906
10712035,39833,2.0058
10716031,43386,2.1847
10720034,45563,2.2943
10724035,44090,2.2201
10728029,39273,1.9776
10732036,35288,1.7769
10736034,33672,1.6955
10740032,32968,1.6601
10744036,31367,1.5795
10748033,29751,1.4981
10752033,29671,1.4941
10756033,31287,1.5754
10760032,32663,1.6447
10764033,32039,1.6133
10768035,30535,1.5376
10772036,30151,1.5182
10776035,31207,1.5714
10780032,32279,1.6254
10784033,31575,1.5900
10788030,30199,1.5207
10792028,29895,1.5054
10796036,31223,1.5722
10800032,32311,1.6270
10804034,31863,1.6045
10808034,30727,1.5473
10812035,30567,1.5392
10816033,31463,1.5843
10820029,32776,1.6504
10824031,32055,1.6141
10828029,30983,1.5601
10832038,30359,1.5287
10836032,31751,1.5988
10840032,33144,1.6690
10844034,32647,1.6439
10848034,31319,1.5771
10852033,31127,1.5674
10856034,32311,1.6270
10860037,33480,1.6859
10864036,33272,1.6754
10868035,31735,1.5980
10872032,31815,1.6020
10876033,32920,1.6577
10880034,34120,1.7181
10884037,33560,1.6899
10888035,32263,1.6246
10892030,32327,1.6278
10896037,33576,1.6907
10900034,34680,1.7463
10904032,34184,1.7213
10908029,33112,1.6673
10912032,32920,1.6577
10916035,33960,1.7100
10920030,35480,1.7866
10924035,35080,1.7664
10928030,33800,1.7020
10932031,33464,1.6851
10936034,34856,1.7552
10940037,36088,1.8172
10944032,35592,1.7922
10948031,34392,1.7318
10952037,33992,1.7117
10956031,35096,1.7673
10960035,36264,1.8261
10964034,35528,1.7890
10968033,33928,1.7084
10972031,33496,1.6867
10976036,34408,1.7326
10980032,35320,1.7785
10984033,34648,1.7447
10988032,33112,1.6673
10992032,32247,1.6238
10996032,33160,1.6698
11000035,34088,1.7165
11004034,33368,1.6802
11008033,31879,1.6053
11012036,31415,1.5819
11016030,32327,1.6278
11020031,33304,1.6770
11024032,32647,1.6439
11028035,31303,1.5763
11032032,31031,1.5626
11036036,32071,1.6149
11040031,33192,1.6714
11044031,32711,1.6472
11048037,31415,1.5819
11052035,30887,1.5553
11056032,31975,1.6101
11060030,33032,1.6633
11064030,32519,1.6375
11068036,31239,1.5730
11072033,30903,1.5561
11076037,32247,1.6238
11080037,33656,1.6947
11084033,32840,1.6537
11088033,31431,1.5827
11092033,30967,1.5593
11096030,32167,1.6198
11100032,33240,1.6738
11104030,32920,1.6577
11108030,31191,1.5706
11112036,31063,1.5642
11116033,32327,1.6278
11120037,33304,1.6770
11124033,32727,1.6480
11128037,31127,1.5674
11132032,30599,1.5408
11136036,31927,1.6077
11140030,33480,1.6859
11144029,32615,1.6423
11148036,31255,1.5738
11152030,30919,1.5569
11156032,32167,1.6198
11160035,33272,1.6754
11164032,32936,1.6585
11168039,31559,1.5891
11172034,30999,1.5609
11176035,32247,1.6238
11180031,33432,1.6835
11184035,32792,1.6512
11188034,31527,1.5875
11192033,31127,1.5674
11196033,32295,1.6262
11200034,33368,1.6802
11204032,32856,1.6545
11208034,31447,1.5835
11212033,30967,1.5593
11216032,32183,1.6206
11220034,33224,1.6730
11224038,32968,1.6601
11228036,31479,1.5851
11232036,31159,1.5690
11236037,32311,1.6270
11240034,33496,1.6867
11244035,32727,1.6480
11248034,31287,1.5754
11252031,30919,1.5569
11256035,32055,1.6141
11260035,33320,1.6778
11264034,32391,1.6310
11268033,31079,1.5650
11272037,30743,1.5481
11276034,32071,1.6149
11280034,33160,1.6698
11284033,32840,1.6537
11288031,31479,1.5851
11292035,30967,1.5593
11296031,32103,1.6165
11300037,33432,1.6835
11304034,32824,1.6528
11308037,31559,1.5891
11312030,30887,1.5553
11316034,32103,1.6165
11320036,33144,1.6690
11324029,32487,1.6359
11328034,31143,1.5682
11332036,30775,1.5497
11336032,32343,1.6286
11340030,33240,1.6738
11344035,32631,1.6431
11348032,31447,1.5835
11352031,31255,1.5738
11356034,32695,1.6463
11360030,33688,1.6964
11364030,33080,1.6657
11368035,31863,1.6045
11372034,31255,1.5738
11376034,32503,1.6367
11380035,34120,1.7181
11384032,33544,1.6891
11388034,32471,1.6351
11392034,32375,1.6302
11396037,33416,1.6827
11400030,34744,1.7495
11404032,34008,1.7125
11408033,32920,1.6577
11412035,32984,1.6609
11416038,34488,1.7366
11420035,35688,1.7971
11424036,35032,1.7640
11428034,33816,1.7028
11432033,33688,1.6964
11436032,35016,1.7632
11440031,35784,1.8019
11444034,34552,1.7399
11448036,32711,1.6472
11452036,32007,1.6117
11456030,33192,1.6714
11460035,33672,1.6955
11464034,32856,1.6545
11468033,31239,1.5730
11472030,30855,1.5537
11476035,32071,1.6149
11480037,33336,1.6786
11484032,32695,1.6463
11488033,31255,1.5738
11492035,31063,1.5642
11496036,32455,1.6343
11500031,33560,1.6899
11504030,32872,1.6553
11508034,31255,1.5738
11512031,30743,1.5481
11516033,32151,1.6190
11520030,33336,1.6786
11524032,32359,1.6294
11528029,30887,1.5553
11532036,30951,1.5585
11536038,32151,1.6190
11540036,32487,1.6359
11544031,31143,1.5682
11548036,29079,1.4643
11552035,29095,1.4651
11556031,31079,1.5650
11560035,33064,1.6649
11564037,34008,1.7125
11568030,35240,1.7745
11572031,37561,1.8914
11576034,41338,2.0816
11580037,44858,2.2588
11584032,44090,2.2201
11588035,40793,2.0541
11592029,37561,1.8914
11596034,35480,1.7866
11600032,34136,1.7189
11604031,32279,1.6254
11608035,29591,1.4900
11612033,29223,1.4715
11616030,30919,1.5569
11620035,32247,1.6238
11624037,31719,1.5972
11628037,30295,1.5255
11632036,29735,1.4973
11636034,31191,1.5706
11640033,32087,1.6157
11644034,31415,1.5819
11648034,30263,1.5239
11652030,30151,1.5182
11656035,31159,1.5690
11660032,32215,1.6222
11664032,31687,1.5956
11668037,30599,1.5408
11672031,30199,1.5207
11676034,31543,1.5883
11680034,32583,1.6407
11684033,31895,1.6061
11688034,30631,1.5424
11692037,30471,1.5344
11696032,31991,1.6109
11700035,32824,1.6528
11704032,31943,1.6085
11708036,30807,1.5513
11712036,30679,1.5448
11716036,32503,1.6367
11720030,33528,1.6883
11724035,32583,1.6407
11728036,31271,1.5746
11732034,31239,1.5730
11736032,32824,1.6528
11740036,34104,1.7173
11744032,33208,1.6722
11748032,31847,1.6036
11752032,31591,1.5908
11756036,33128,1.6682
11760033,34536,1.7391
11764035,33752,1.6996
11768033,32808,1.6520
11772033,32840,1.6537
11776036,34296,1.7270
11780031,35480,1.7866
11784034,34776,1.7511
11788033,33480,1.6859
11792036,33448,1.6843
11796030,34824,1.7536
11800036,35864,1.8059
11804031,35256,1.7753
11808037,33960,1.7100
11812035,33720,1.6980
11816032,35016,1.7632
11820033,36120,1.8188
11824031,35176,1.7713
11828035,33704,1.6972
11832034,33064,1.6649
11836035,34072,1.7157
11840036,34552,1.7399
11844036,33832,1.7036
11848031,32119,1.6173
11852033,31447,1.5835
11856036,32840,1.6537
11860031,33432,1.6835
11864034,32663,1.6447
11868030,31223,1.5722
11872030,30983,1.5601
11876031,32231,1.6230
11880036,32984,1.6609
11884033,32343,1.6286
11888035,31143,1.5682
11892037,30727,1.5473
11896034,31991,1.6109
11900034,32984,1.6609
11904032,32215,1.6222
11908037,30919,1.5569
11912033,30615,1.5416
11916033,31863,1.6045
11920035,33048,1.6641
11924034,32311,1.6270
11928031,31399,1.5811
11932036,31015,1.5618
11936035,32840,1.6537
11940036,33848,1.7044
11944034,33352,1.6794
11948037,32231,1.6230
11952033,32343,1.6286
11956035,34056,1.7149
11960031,36200,1.8228
11964035,37209,1.8737
11968032,38137,1.9204
11972034,40617,2.0453
11976037,45259,2.2790
11980036,50028,2.5191
11984030,53020,2.6698
11988032,53885,2.7134
11992035,55101,2.7746
11996035,57245,2.8826
12000036,58542,2.9479
12004037,57950,2.9181
12008034,57422,2.8915
12012029,58574,2.9495
12016031,60334,3.0381
12020034,59822,3.0123
12024034,56829,2.8616
12028032,53132,2.6754
12032031,50588,2.5473
12036032,49324,2.4837
12040031,47819,2.4079
12044034,44410,2.2363
12048034,39961,2.0122
12052036,35960,1.8108
12056034,33080,1.6657
12060034,30167,1.5191
12064031,26102,1.3144
12068038,22501,1.1330
12072034,21605,1.0879
12076030,22549,1.1354
12080031,23653,1.1910
12084031,23029,1.1596
12088030,21653,1.0903
12092035,20917,1.0533
12096032,22309,1.1234
12100032,23253,1.1709
12104030,22453,1.1306
12108033,20853,1.0500
12112036,20933,1.0541
12116034,22245,1.1201
12120037,23109,1.1636
12124030,22197,1.1177
12128032,20709,1.0428
12132032,20356,1.0250
12136029,21813,1.0984
12140035,22533,1.1346
12144031,22037,1.1097
12148032,20340,1.0242
12152032,19924,1.0033
12156032,21237,1.0694
12160030,21781,1.0968
12164030,21045,1.0597
12168038,19348,0.9743
12172036,18964,0.9549
12176031,20100,1.0121
12180036,20869,1.0509
12184034,20052,1.0097
12188031,18468,0.9300
12192036,18132,0.9130
12196031,19620,0.9880
12200035,20581,1.0364
12204035,19812,0.9976
12208032,18644,0.9388
12212032,18516,0.9324
12216033,19956,1.0049
12220034,21253,1.0702
12224035,20709,1.0428
12228030,19956,1.0049
12232037,20420,1.0282
12236035,22661,1.1411
12240034,24421,1.2297
12244031,24053,1.2112
12248033,23717,1.1943
12252031,24165,1.2168
12256034,26470,1.3329
12260036,28390,1.4296
12264035,28486,1.4344
12268033,27686,1.3941
12272038,28214,1.4207
12276033,30439,1.5327
12280032,32087,1.6157
12284034,32023,1.6125
12288035,31239,1.5730
12292036,31495,1.5859
12296034,33416,1.6827
12300034,35032,1.7640
12304029,34088,1.7165
12308031,32647,1.6439
12312030,32375,1.6302
12316036,34104,1.7173
12320031,35624,1.7938
12324030,35416,1.7834
12328036,34424,1.7334
12332033,34008,1.7125
12336032,35464,1.7858
12340037,36873,1.8567
12344032,36184,1.8220
12348030,34824,1.7536
12352033,34600,1.7423
12356033,35400,1.7826
12360031,35768,1.8011
12364038,34296,1.7270
12368029,32776,1.6504
12372033,32423,1.6327
12376031,33608,1.6923
12380035,34344,1.7294
12384033,33672,1.6955
12388032,32455,1.6343
12392031,31895,1.6061
12396030,33432,1.6835
12400033,34072,1.7157
12404032,33480,1.6859
12408031,32055,1.6141
12412036,31687,1.5956
12416031,33192,1.6714
12420035,34104,1.7173
12424038,33448,1.6843
12428033,31975,1.6101
12432032,31655,1.5940
12436030,33144,1.6690
12440030,34056,1.7149
12444030,33432,1.6835
12448037,31799,1.6012
12452029,31831,1.6028
12456034,33048,1.6641
12460036,33672,1.6955
12464030,32824,1.6528
12468031,31463,1.5843
12472034,31271,1.5746
12476032,32904,1.6569
12480030,34216,1.7229
12484036,33160,1.6698
12488035,31927,1.6077
12492037,31815,1.6020
12496034,33576,1.6907
12500034,34216,1.7229
12504035,33528,1.6883
12508030,32055,1.6141
12512034,31927,1.6077
12516032,33496,1.6867
12520031,34280,1.7262
12524031,33400,1.6818
12528036,32359,1.6294
12532034,32247,1.6238
12536029,33656,1.6947
12542067,34024,1.7133
12544036,33416,1.6827
12548029,32295,1.6262
12552033,32439,1.6335
12556034,33592,1.6915
12560029,34472,1.7358
12564032,33848,1.7044
12568029,32407,1.6318
12572033,32231,1.6230
12576035,33896,1.7068
12580038,34568,1.7407
12584031,33928,1.7084
12588033,32087,1.6157
12592031,31927,1.6077
12596034,33576,1.6907
12600034,34648,1.7447
12604030,34104,1.7173
12608031,32567,1.6399
12612031,32247,1.6238
12616030,33448,1.6843
12620030,34024,1.7133
12624035,32727,1.6480
12628031,30743,1.5481
12632036,30967,1.5593
12636035,32936,1.6585
12640031,34920,1.7584
12644036,36440,1.8349
12648035,37753,1.9010
12652034,40041,2.0163
12656031,43882,2.2097
12660032,45995,2.3161
12664032,44442,2.2379
12668029,40409,2.0348
12672034,37065,1.8664
12676030,35384,1.7818
12680035,34120,1.7181
12684036,32135,1.6182
12688032,29831,1.5021
12692031,30343,1.5279
12696034,32535,1.6383
12700035,34040,1.7141
12704035,33208,1.6722
12708032,31703,1.5964
12712034,31527,1.5875
12716035,32968,1.6601
12720037,33928,1.7084
12724032,33112,1.6673
12728037,31895,1.6061
12732031,31607,1.5916
12736034,33208,1.6722
12740036,34056,1.7149
12744034,33464,1.6851
12748035,31831,1.6028
12752034,31847,1.6036
12756034,33592,1.6915
12760036,34296,1.7270
12764033,33224,1.6730
12768033,31895,1.6061
12772031,31767,1.5996
12776034,33400,1.6818
12780036,34296,1.7270
12784033,33400,1.6818
12788033,32279,1.6254
12792028,31735,1.5980
12796033,33272,1.6754
12800030,34168,1.7205
12804030,33512,1.6875
12808031,32247,1.6238
12812033,32215,1.6222
12816031,33848,1.7044
12820037,34744,1.7495
12824034,34088,1.7165
12828039,33128,1.6682
12832032,33064,1.6649
12836034,34280,1.7262
12840036,35208,1.7729
12844035,34648,1.7447
12848036,33480,1.6859
12852031,33560,1.6899
12856029,35400,1.7826
12860032,36344,1.8301
12864034,35464,1.7858
12868037,34312,1.7278
12872035,34232,1.7237
12876034,35496,1.7874
12880036,36392,1.8325
12884029,35912,1.8083
12888036,34520,1.7382
12892030,34136,1.7189
12896032,35400,1.7826
12900030,36184,1.8220
12904031,35048,1.7648
12908035,33208,1.6722
12912034,32968,1.6601
12916032,34248,1.7246
12920036,34872,1.7560
12924030,33752,1.6996
12928034,32311,1.6270
12932034,32039,1.6133
12936034,33672,1.6955
12940033,34328,1.7286
12944036,33384,1.6810
12948037,31927,1.6077
12952031,31543,1.5883
12956037,32695,1.6463
12960034,33560,1.6899
12964034,32904,1.6569
12968038,31847,1.6036
12972035,31431,1.5827
12976034,32920,1.6577
12980030,33544,1.6891
12984037,32647,1.6439
12988032,31351,1.5787
12992033,31207,1.5714
12996035,32583,1.6407
13000029,33416,1.6827
13004036,32567,1.6399
13008034,31191,1.5706
13012033,31127,1.5674
13016037,32792,1.6512
13020036,33496,1.6867
13024034,32551,1.6391
13028035,31415,1.5819
13032030,31287,1.5754
13036035,32872,1.6553
13040030,33720,1.6980
13044029,32599,1.6415
13048029,31351,1.5787
13052036,31271,1.5746
13056036,32792,1.6512
13060031,33496,1.6867
13064030,32487,1.6359
13068036,31367,1.5795
13072034,31111,1.5666
13076034,32503,1.6367
13080034,33336,1.6786
13084037,32311,1.6270
13088035,30951,1.5585
13092030,30903,1.5561
13096033,32359,1.6294
13100035,33400,1.6818
13104035,32631,1.6431
13108037,31079,1.5650
13112035,30871,1.5545
13116031,32279,1.6254
13120033,33048,1.6641
13124033,32279,1.6254
13128035,30887,1.5553
13132030,30727,1.5473
13136036,32199,1.6214
13140038,33096,1.6665
13144036,32215,1.6222
13148030,30967,1.5593
13152037,30983,1.5601
13156032,32311,1.6270
13160033,33320,1.6778
13164036,32215,1.6222
13168035,31079,1.5650
13172031,31159,1.5690
13176029,32840,1.6537
13180033,33496,1.6867
13184036,32311,1.6270
13188035,30951,1.5585
13192033,31223,1.5722
13196036,32215,1.6222
13200031,33096,1.6665
13204030,32311,1.6270
13208031,31255,1.5738
13212030,31287,1.5754
13216035,33288,1.6762
13220031,34216,1.7229
13224031,33448,1.6843
13228032,32039,1.6133
13232036,31879,1.6053
13236031,33176,1.6706
13240036,34200,1.7221
13244036,33832,1.7036
13248031,33048,1.6641
13252034,33288,1.6762
13256030,35064,1.7656
13260032,35576,1.7914
13264034,34904,1.7576
13268034,33592,1.6915
13272030,33608,1.6923
13276034,34968,1.7608
13280036,35128,1.7689
13284036,33336,1.6786
13288029,31783,1.6004
13292035,31367,1.5795
13296032,32631,1.6431
13300032,33256,1.6746
13304030,32263,1.6246
13308035,30935,1.5577
13312035,31143,1.5682
13316034,32423,1.6327
13320031,33288,1.6762
13324032,32583,1.6407
13328035,31031,1.5626
13332037,30935,1.5577
13336029,32103,1.6165
13340031,32968,1.6601
13344030,32023,1.6125
13348032,30439,1.5327
13352035,30439,1.5327
13356036,31895,1.6061
13360034,32727,1.6480
13364036,31991,1.6109
13368035,30871,1.5545
13372032,30663,1.5440
13376035,32135,1.6182
13380033,32583,1.6407
13384037,31287,1.5754
13388036,29575,1.4892
13392031,28967,1.4586
13396032,30487,1.5352
13400036,31959,1.6093
13404035,31847,1.6036
13408038,31911,1.6069
13412032,34392,1.7318
13416034,38585,1.9429
13420033,41962,2.1130
13424032,43098,2.1702
13428036,41754,2.1025
13432037,39913,2.0098
13436032,38729,1.9502
13440038,36840,1.8551
13444032,33240,1.6738
13448033,30487,1.5352
13452037,29895,1.5054
13456031,30791,1.5505
13460030,31831,1.6028
13464030,31367,1.5795
13468034,30375,1.5295
13472031,30759,1.5489
13476033,32311,1.6270
13480035,32840,1.6537
13484031,31911,1.6069
13488031,30359,1.5287
13492030,30407,1.5311
13496034,32087,1.6157
13500032,32824,1.6528
13504033,32103,1.6165
13508030,30535,1.5376
13512036,30583,1.5400
13516031,32199,1.6214
13520036,33016,1.6625
13524033,32071,1.6149
13528031,30839,1.5529
13532033,30647,1.5432
13536031,32279,1.6254
13540034,33224,1.6730
13544034,31959,1.6093
13548033,31047,1.5634
13552036,31111,1.5666
13556036,32679,1.6455
13560036,33496,1.6867
13564034,32247,1.6238
13568029,31111,1.5666
13572033,31239,1.5730
13576032,32679,1.6455
13580034,33608,1.6923
13584032,32727,1.6480
13588037,31591,1.5908
13592032,31879,1.6053
13596032,33560,1.6899
13600031,34392,1.7318
13604030,33512,1.6875
13608037,32423,1.6327
13612037,32583,1.6407
13616034,34328,1.7286
13620034,35016,1.7632
13624031,34184,1.7213
13628029,33192,1.6714
13632033,33192,1.6714
13636032,34696,1.7471
13640029,35864,1.8059
13644035,34952,1.7600
13648031,33992,1.7117
13652032,33688,1.6964
13656033,35016,1.7632
13660031,35576,1.7914
13664033,34408,1.7326
13668033,32952,1.6593
13672034,32727,1.6480
13676034,33960,1.7100
13680035,34520,1.7382
13684034,33528,1.6883
13688033,31719,1.5972
13692035,31735,1.5980
13696032,33192,1.6714
13700033,33784,1.7012
13704032,32679,1.6455
13708033,31175,1.5698
13712036,31207,1.5714
13716033,32856,1.6545
13720033,33288,1.6762
13724031,32295,1.6262
13728030,31063,1.5642
13732033,30855,1.5537
13736034,32439,1.6335
13740034,33160,1.6698
13744037,31719,1.5972
13748034,30503,1.5360
13752038,30535,1.5376
13756035,32199,1.6214
13760032,33016,1.6625
13764031,31991,1.6109
13768033,30535,1.5376
13772032,30551,1.5384
13776031,32263,1.6246
13780035,33256,1.6746
13784036,32039,1.6133
13788033,31191,1.5706
13792035,31047,1.5634
13796037,32471,1.6351
13800030,33352,1.6794
13804030,32519,1.6375
13808032,31543,1.5883
13812033,31847,1.6036
13816033,33576,1.6907
13820037,34312,1.7278
13824031,33640,1.6939
13828033,33112,1.6673
13832034,34104,1.7173
13836038,37129,1.8696
13840032,40185,2.0235
13844035,42202,2.1251
13848030,43994,2.2153
13852031,47787,2.4063
13856034,52460,2.6416
13860031,54941,2.7665
13864036,55325,2.7859
13868033,54029,2.7206
13872032,54333,2.7359
13876032,55613,2.8004
13880034,57518,2.8963
13884037,58094,2.9253
13888033,57710,2.9060
13892031,56909,2.8656
13896033,56109,2.8254
13900032,54877,2.7633
13904030,51724,2.6046
13908032,48059,2.4200
13912031,45563,2.2943
13916035,44538,2.2427
13920032,42314,2.1307
13924037,37529,1.8898
13928033,31927,1.6077
13932034,27798,1.3998
13936032,26086,1.3136
13940030,24886,1.2531
13944034,23045,1.1604
13948035,21493,1.0823
13952029,21509,1.0831
13956035,22805,1.1483
13960036,23349,1.1757
13964032,22405,1.1282
13968034,20789,1.0468
13972033,20757,1.0452
13976036,22613,1.1387
13980032,23141,1.1653
13984032,21893,1.1024
13988031,20565,1.0355
13992034,20581,1.0364
13996032,22133,1.1145
14000036,22693,1.1427
14004031,21637,1.0895
14008033,20276,1.0210
14012037,20244,1.0194
14016037,21765,1.0960
14020030,22165,1.1161
14024031,20805,1.0476
14028031,19188,0.9662
14032035,19172,0.9654
14036030,20757,1.0452
14040035,21365,1.0758
14044033,20148,1.0145
14048036,18484,0.9308
14052034,18484,0.9308
14056035,19796,0.9968
14060036,20212,1.0178
14064034,19028,0.9582
14068031,17812,0.8969
14072032,18020,0.9074
14076036,19556,0.9847
14080036,20501,1.0323
14084033,19460,0.9799
14088034,18356,0.9243
14092036,18820,0.9477
14096033,20677,1.0412
14100034,22037,1.1097
14104032,21509,1.0831
14108036,21029,1.0589
14112038,21717,1.0936
14116035,23893,1.2031
14120032,25606,1.2894
14124033,25606,1.2894
14128034,25270,1.2725
14132031,26278,1.3232
14136031,28695,1.4449
14140036,30359,1.5287
14144032,29943,1.5078
14148034,29415,1.4812
14152035,30375,1.5295
14156035,32167,1.6198
14160037,33320,1.6778
14164031,32792,1.6512
14168036,31815,1.6020
14172036,32375,1.6302
14176033,33896,1.7068
14180032,34488,1.7366
14184034,33464,1.6851
14188034,32295,1.6262
14192033,32375,1.6302
14196030,34056,1.7149
14200037,35016,1.7632
14204035,34152,1.7197
14208034,32984,1.6609
14212035,33480,1.6859
14216030,34792,1.7519
14220037,35384,1.7818
14224034,34424,1.7334
14228031,33352,1.6794
14232034,34104,1.7173
14236036,35784,1.8019
14240032,36744,1.8502
14244031,35784,1.8019
14248032,34552,1.7399
14252038,34952,1.7600
14256035,36600,1.8430
14260036,37177,1.8720
14264036,35800,1.8027
14268031,34488,1.7366
14272035,34008,1.7125
14276032,34664,1.7455
14280034,35032,1.7640
14284036,33576,1.6907
14288033,32263,1.6246
14292035,32327,1.6278
14296035,33944,1.7092
14300036,34728,1.7487
14304030,33464,1.6851
14308032,32247,1.6238
14312032,32103,1.6165
14316030,33704,1.6972
14320034,34248,1.7246
14324033,33224,1.6730
14328035,32135,1.6182
14332032,32215,1.6222
14336031,33592,1.6915
14340032,34328,1.7286
14344028,33192,1.6714
14348032,31927,1.6077
14352028,32103,1.6165
14356038,33848,1.7044
14360033,34296,1.7270
14364034,33304,1.6770
14368033,32103,1.6165
14372032,32455,1.6343
14376036,33800,1.7020
14380031,34504,1.7374
14384034,33112,1.6673
14388033,31895,1.6061
14392034,32247,1.6238
14396030,33480,1.6859
14400035,33976,1.7109
14404031,33288,1.6762
14408030,31815,1.6020
14412034,32151,1.6190
14416031,33576,1.6907
14420031,34104,1.7173
14424030,32968,1.6601
14428036,31751,1.5988
14432035,32135,1.6182
14436031,33416,1.6827
14440032,34184,1.7213
14444032,33160,1.6698
14448035,31975,1.6101
14452030,32215,1.6222
14456033,33480,1.6859
14460031,34040,1.7141
14464037,33064,1.6649
14468035,31911,1.6069
14472031,32311,1.6270
14476032,33816,1.7028
14480036,34328,1.7286
14484030,33400,1.6818
14488028,32231,1.6230
14492035,32503,1.6367
14496031,34408,1.7326
14500037,35016,1.7632
14504030,33784,1.7012
14508031,32263,1.6246
14512031,32391,1.6310
14516030,34088,1.7165
14520035,34664,1.7455
14524033,33928,1.7084
14528031,32407,1.6318
14532034,32439,1.6335
14536032,34216,1.7229
14540033,34344,1.7294
14544030,33288,1.6762
14548033,31895,1.6061
14552034,31911,1.6069
14556035,33256,1.6746
14560034,33560,1.6899
14564035,31943,1.6085
14568031,31303,1.5763
14572035,32503,1.6367
14576030,34744,1.7495
14580031,37561,1.8914
14584035,39593,1.9937
14588036,40970,2.0630
14592031,43242,2.1774
14596036,45355,2.2838
14600037,44218,2.2266
14604034,40169,2.0227
14608036,35784,1.8019
14612035,32695,1.6463
14616033,32231,1.6230
14620031,31735,1.5980
14624035,30695,1.5456
14628035,30535,1.5376
14632037,31367,1.5795
14636036,33080,1.6657
14640032,33784,1.7012
14644034,32663,1.6447
14648033,31399,1.5811
14652030,31703,1.5964
14656036,33272,1.6754
14660037,33880,1.7060
14664030,32711,1.6472
14668033,31399,1.5811
14672034,31559,1.5891
14676033,32920,1.6577
14680032,33544,1.6891
14684033,32615,1.6423
14688038,31783,1.6004
14692030,32087,1.6157
14696034,33368,1.6802
14700037,34072,1.7157
14704035,32808,1.6520
14708030,31591,1.5908
14712035,31975,1.6101
14716035,33560,1.6899
14720035,34040,1.7141
14724033,32888,1.6561
14728031,31767,1.5996
14732036,32055,1.6141
14736034,33976,1.7109
14740032,34184,1.7213
14744030,33016,1.6625
14748029,31991,1.6109
14752034,32471,1.6351
14756033,34008,1.7125
14760031,34392,1.7318
14764031,33368,1.6802
14768035,32199,1.6214
14772033,32535,1.6383
14776035,34360,1.7302
14780029,35304,1.7777
14784030,34024,1.7133
14788034,33048,1.6641
14792032,33608,1.6923
14796030,35416,1.7834
14800034,35848,1.8051
14804030,34840,1.7544
14808033,33624,1.6931
14812038,34248,1.7246
14816033,35880,1.8067
14820034,36152,1.8204
14824033,34952,1.7600
14828030,33768,1.7004
14832031,33864,1.7052
14836037,35160,1.7705
14840033,35512,1.7882
14844033,33944,1.7092
14848034,32647,1.6439
14852035,32471,1.6351
14856034,33704,1.6972
14860035,33976,1.7109
14864032,32631,1.6431
14868033,31287,1.5754
14872036,31495,1.5859
14876035,33000,1.6617
14880034,33352,1.6794
14884038,32231,1.6230
14888033,30903,1.5561
14892029,31191,1.5706
14896035,32776,1.6504
14900033,33464,1.6851
14904033,32087,1.6157
14908035,30775,1.5497
14912033,31015,1.5618
14916034,32599,1.6415
14920029,33064,1.6649
14924037,31975,1.6101
14928036,31063,1.5642
14932031,31687,1.5956
14936031,33240,1.6738
14940035,33480,1.6859
14944035,32343,1.6286
14948034,31271,1.5746
14952034,31559,1.5891
14956033,32984,1.6609
14960037,33432,1.6835
14964035,32295,1.6262
14968036,31191,1.5706
14972033,31463,1.5843
14976035,32856,1.6545
14980030,33592,1.6915
14984034,32471,1.6351
14988034,31207,1.5714
14992031,31543,1.5883
14996034,33160,1.6698
15000035,33704,1.6972
15004034,32583,1.6407
15008032,30999,1.5609
15012037,31207,1.5714
15016035,32663,1.6447
15020030,33416,1.6827
15024033,32087,1.6157
15028034,31159,1.5690
15032030,31207,1.5714
15036037,32727,1.6480
15040031,33176,1.6706
15044030,31879,1.6053
15048032,31159,1.5690
15052035,30999,1.5609
15056033,32792,1.6512
15060035,33528,1.6883
15064031,32343,1.6286
15068034,31335,1.5779
15072036,31559,1.5891
15076029,32872,1.6553
15080034,33352,1.6794
15084034,32199,1.6214
15088034,31159,1.5690
15092031,31703,1.5964
15096032,33256,1.6746
15100028,33608,1.6923
15104035,32407,1.6318
15108031,31239,1.5730
15112032,31639,1.5932
15116031,33048,1.6641
15120035,33320,1.6778
15124028,32071,1.6149
15128034,31015,1.5618
15132038,31431,1.5827
15136030,33032,1.6633
15140036,33400,1.6818
15144030,32215,1.6222
15148037,30999,1.5609
15152035,31703,1.5964
15156030,33544,1.6891
15160033,34008,1.7125
15164033,32984,1.6609
15168030,31767,1.5996
15172032,32279,1.6254
15176035,33656,1.6947
15180035,34136,1.7189
15184037,33256,1.6746
15188029,32679,1.6455
15192036,33576,1.6907
15196033,35368,1.7809
15200037,35560,1.7906
15204032,34552,1.7399
15208032,33384,1.6810
15212037,33864,1.7052
15216037,35320,1.7785
15220036,34856,1.7552
15224032,33016,1.6625
15228031,31191,1.5706
15232031,30999,1.5609
15236032,32183,1.6206
15240035,32407,1.6318
15244032,31655,1.5940
15248032,30247,1.5231
15252031,30679,1.5448
15256036,32135,1.6182
15260035,32359,1.6294
15264031,31031,1.5626
15268031,30215,1.5215
15272035,30679,1.5448
15276032,32055,1.6141
15280031,32151,1.6190
15284032,31127,1.5674
15288038,30423,1.5319
15292032,30695,1.5456
15296034,32279,1.6254
15300031,33048,1.6641
15304030,31591,1.5908
15308035,30135,1.5174
15312034,30439,1.5327
15316035,32167,1.6198
15320030,32679,1.6455
15324030,31559,1.5891
15328033,30647,1.5432
15332035,30583,1.5400
15336029,31783,1.6004
15340033,31591,1.5908
15344035,30167,1.5191
15348036,29655,1.4933
15352033,30967,1.5593
15356037,33864,1.7052
15360030,36696,1.8478
15364031,38217,1.9244
15368030,39241,1.9760
15372033,41322,2.0808
15376038,42698,2.1500
15380033,41194,2.0743
15384036,37945,1.9107
15388034,34680,1.7463
15392032,32391,1.6310
15396034,32279,1.6254
15400032,31351,1.5787
15404035,29863,1.5037
15408032,29095,1.4651
15412036,30183,1.5199
15416034,32439,1.6335
15420034,32567,1.6399
15424031,31751,1.5988
15428036,30183,1.5199
15432031,30455,1.5336
15436035,32055,1.6141
15440037,32439,1.6335
15444031,31127,1.5674
15448032,30583,1.5400
15452030,31207,1.5714
15456031,32311,1.6270
15460031,32487,1.6359
15464032,31271,1.5746
15468036,30215,1.5215
15472037,30647,1.5432
15476036,32599,1.6415
15480034,32711,1.6472
15484031,31527,1.5875
15488034,30535,1.5376
15492033,31127,1.5674
15496033,32968,1.6601
15500034,33320,1.6778
15504036,32087,1.6157
15508035,31047,1.5634
15512035,31447,1.5835
15516035,33096,1.6665
15520030,33256,1.6746
15524030,32055,1.6141
15528034,30887,1.5553
15532034,31575,1.5900
15536033,33208,1.6722
15540031,33352,1.6794
15544036,32183,1.6206
15548037,31175,1.5698
15552036,31623,1.5924
15556035,33368,1.6802
15560032,34328,1.7286
15564035,33464,1.6851
15568032,32984,1.6609
15572033,33304,1.6770
15576030,34760,1.7503
15580030,35128,1.7689
15584036,33880,1.7060
15588032,32695,1.6463
15592035,33320,1.6778
15596035,34968,1.7608
15600030,35304,1.7777
15604036,33816,1.7028
15608037,32407,1.6318
15612033,32599,1.6415
15616033,33768,1.7004
15620034,34136,1.7189
15624036,32727,1.6480
15628036,31351,1.5787
15632033,31751,1.5988
15636029,32792,1.6512
15640032,32984,1.6609
15644035,31703,1.5964
15648032,30615,1.5416
15652036,30951,1.5585
15656030,32487,1.6359
15660030,33000,1.6617
15664034,31863,1.6045
15668033,30839,1.5529
15672030,31047,1.5634
15676032,32471,1.6351
15680029,32776,1.6504
15684032,31559,1.5891
15688036,30679,1.5448
15692036,31159,1.5690
15696036,32551,1.6391
15700034,32808,1.6520
15704031,31543,1.5883
15708038,30487,1.5352
15712030,30567,1.5392
15716033,31927,1.6077
15720030,32343,1.6286
15724033,31159,1.5690
15728030,30007,1.5110
15732030,30647,1.5432
15736030,32391,1.6310
15740032,32183,1.6206
15744035,30999,1.5609
15748034,30119,1.5166
15752032,30743,1.5481
15756029,32647,1.6439
15760035,33064,1.6649
15764034,31975,1.6101
15768029,31367,1.5795
15772036,31703,1.5964
15776031,33832,1.7036
15780032,34424,1.7334
15784033,33304,1.6770
15788035,33384,1.6810
15792036,35592,1.7922
15796031,39337,1.9808
15800033,42602,2.1452
15804033,44554,2.2435
15808036,46811,2.3572
15812036,50476,2.5417
15816031,54013,2.7198
15820036,55869,2.8133
15824033,55085,2.7738
15828030,53997,2.7190
15832034,55069,2.7730
15836032,56957,2.8681
15840031,58446,2.9430
15844034,58014,2.9213
15848036,55981,2.8189
15852028,54317,2.7351
15856032,53869,2.7126
15860036,51980,2.6174
15864032,47851,2.4095
15868032,44042,2.2177
15872030,42026,2.1162
15876032,40921,2.0606
15880035,37817,1.9043
15884030,32375,1.6302
15888035,27542,1.3869
15892033,25110,1.2644
15896036,24678,1.2427
15900035,24069,1.2120
15904032,22261,1.1209
15908037,21349,1.0750
15912033,21557,1.0855
15916037,23093,1.1628
15920031,23365,1.1765
15924035,21989,1.1073
15928030,20789,1.0468
15932031,21109,1.0629
15936032,22965,1.1564
15940033,23237,1.1701
15944032,21765,1.0960
15948032,20725,1.0436
15952032,21557,1.0855
15956036,22917,1.1540
15960031,22837,1.1500
15964034,21589,1.0871
15968030,20260,1.0202
15972032,20228,1.0186
15976035,21701,1.0927
15980034,22005,1.1081
15984033,20597,1.0372
15988035,19396,0.9767
15992034,19524,0.9831
15996033,21061,1.0605
16000035,21237,1.0694
16004038,19556,0.9847
16008033,18180,0.9154
16012033,18644,0.9388
16016035,20068,1.0105
16020036,20436,1.0291
16024033,19028,0.9582
16028037,18196,0.9163
16032035,18484,0.9308
16036035,20068,1.0105
16040030,20645,1.0396
16044034,19716,0.9928
16048031,18948,0.9541
16052034,19652,0.9896
16056033,21717,1.0936
16060037,22469,1.1314
16064034,21893,1.1024
16068033,21685,1.0919
16072036,22997,1.1580
16076033,25926,1.3055
16080035,26854,1.3522
16084031,26886,1.3538
16088029,26214,1.3200
16092036,27814,1.4006
16096033,30135,1.5174
16100031,30855,1.5537
16104032,30535,1.5376
16108028,30439,1.5327
16112031,31447,1.5835
16116033,33704,1.6972
16120033,34056,1.7149
16124034,32663,1.6447
16128038,31767,1.5996
16132030,32295,1.6262
16136031,34120,1.7181
16140032,34680,1.7463
16144030,33480,1.6859
16148032,32279,1.6254
16152034,32695,1.6463
16156032,34344,1.7294
16160030,34872,1.7560
16164034,33800,1.7020
16168035,32583,1.6407
16172032,33416,1.6827
16176035,35096,1.7673
16180034,35512,1.7882
16184030,34360,1.7302
16188034,33288,1.6762
16192035,33768,1.7004
16196034,35416,1.7834
16200030,36008,1.8132
16204034,35000,1.7624
16208032,34152,1.7197
16212029,34744,1.7495
16216031,36536,1.8398
16220033,37049,1.8656
16224038,35928,1.8091
16228037,34792,1.7519
16232031,35096,1.7673
16236034,36168,1.8212
16240035,35992,1.8124
16244036,34152,1.7197
16248037,32711,1.6472
16252035,32695,1.6463
16256032,34120,1.7181
16260032,34568,1.7407
16264034,33224,1.6730
16268036,32231,1.6230
16272032,32551,1.6391
16276034,33928,1.7084
16280034,34168,1.7205
16284036,32856,1.6545
16288034,31815,1.6020
16292029,32375,1.6302
16296033,33832,1.7036
16300035,34072,1.7157
16304030,32840,1.6537
16308032,31927,1.6077
16312035,32215,1.6222
16316033,33912,1.7076
16320033,34264,1.7254
16324034,32936,1.6585
16328030,31799,1.6012
16332034,32295,1.6262
16336035,33832,1.7036
16340034,34168,1.7205
16344033,33272,1.6754
16348036,31799,1.6012
16352038,32471,1.6351
16356034,34184,1.7213
16360033,34360,1.7302
16364033,32840,1.6537
16368031,31927,1.6077
16372035,32567,1.6399
16376033,34104,1.7173
16380035,34472,1.7358
16384036,32840,1.6537
16388031,31975,1.6101
16392031,32519,1.6375
16396035,34248,1.7246
16400030,34456,1.7350
16404031,32936,1.6585
16408033,31927,1.6077
16412033,32936,1.6585
16416036,34280,1.7262
16420034,34488,1.7366
16424033,33608,1.6923
16428029,31991,1.6109
16432031,32567,1.6399
16436033,34264,1.7254
16440029,34040,1.7141
16444036,33384,1.6810
16448037,32535,1.6383
16452036,32824,1.6528
16456035,34424,1.7334
16460032,34728,1.7487
16464034,33256,1.6746
16468036,32183,1.6206
16472031,32695,1.6463
16476030,34328,1.7286
16480036,34600,1.7423
16484030,33352,1.6794
16488033,32343,1.6286
16492030,32920,1.6577
16496035,34456,1.7350
16500036,34664,1.7455
16504034,33448,1.6843
16508035,32359,1.6294
16512032,33240,1.6738
16516036,34584,1.7415
16520030,34872,1.7560
16524035,33880,1.7060
16528036,32888,1.6561
16532036,33528,1.6883
16536037,34888,1.7568
16540032,34824,1.7536
16544035,33448,1.6843
16548034,31751,1.5988
16552034,31927,1.6077
16556034,33560,1.6899
16560032,34472,1.7358
16564033,34184,1.7213
16568030,35224,1.7737
16572032,38841,1.9558
16576031,42970,2.1637
16580030,45323,2.2822
16584031,45050,2.2685
16588033,42746,2.1525
16592036,40841,2.0565
16596032,39193,1.9736
16600034,36312,1.8285
16604031,33048,1.6641
16608030,30503,1.5360
16612029,30743,1.5481
16616031,32519,1.6375
16620028,33528,1.6883
16624034,32968,1.6601
16628030,32103,1.6165
16632035,33080,1.6657
16636035,34472,1.7358
16640030,34696,1.7471
16644036,33336,1.6786
16648031,32792,1.6512
16652029,33288,1.6762
16656032,34360,1.7302
16660033,34456,1.7350
16664034,33224,1.6730
16668036,32279,1.6254
16672034,33032,1.6633
16676030,34344,1.7294
16680033,34152,1.7197
16684036,33096,1.6665
16688033,31879,1.6053
16692036,32599,1.6415
16696035,34248,1.7246
16700034,34456,1.7350
16704029,32952,1.6593
16708036,32023,1.6125
16712035,32647,1.6439
16716030,34152,1.7197
16720032,34472,1.7358
16724034,33288,1.6762
16728031,32535,1.6383
16732030,32599,1.6415
16736032,34232,1.7237
16740036,34440,1.7342
16744033,33464,1.6851
16748032,32615,1.6423
16752036,33320,1.6778
16756031,35080,1.7664
16760034,35368,1.7809
16764036,33960,1.7100
16768032,33080,1.6657
16772030,33928,1.7084
16776030,35576,1.7914
16780035,35800,1.8027
16784033,34776,1.7511
16788029,33784,1.7012
16792031,34632,1.7439
16796031,36376,1.8317
16800035,36248,1.8253
16804035,35208,1.7729
16808030,34136,1.7189
16812035,34664,1.7455
16816031,36200,1.8228
16820036,36616,1.8438
16824035,35048,1.7648
16828035,33976,1.7109
16832037,34056,1.7149
16836036,35208,1.7729
16840032,35096,1.7673
16844036,33624,1.6931
16848035,32792,1.6512
16852035,32920,1.6577
16856029,34136,1.7189
16860030,33960,1.7100
16864035,32743,1.6488
16868031,31463,1.5843
16872034,31863,1.6045
16876033,33272,1.6754
16880030,33192,1.6714
16884035,31863,1.6045
16888031,30839,1.5529
16892036,31543,1.5883
16896036,33064,1.6649
16900034,33208,1.6722
16904035,31735,1.5980
16908035,30871,1.5545
16912034,31543,1.5883
16916035,33016,1.6625
16920035,33048,1.6641
16924034,32119,1.6173
16928035,31175,1.5698
16932034,31527,1.5875
16936034,33160,1.6698
16940028,33544,1.6891
16944033,32327,1.6278
16948038,31271,1.5746
16952034,32279,1.6254
16956035,33576,1.6907
16960036,33496,1.6867
16964035,32167,1.6198
16968030,31143,1.5682
16972034,31847,1.6036
16976031,33224,1.6730
16980033,33288,1.6762
16984031,32199,1.6214
16988035,31239,1.5730
16992034,31735,1.5980
16996031,33112,1.6673
17000037,33480,1.6859
17004032,32327,1.6278
17008033,30999,1.5609
17012033,31639,1.5932
17016034,33048,1.6641
17020031,33128,1.6682
17024035,32135,1.6182
17028036,30967,1.5593
17032033,31543,1.5883
17036033,33224,1.6730
17040033,33432,1.6835
17044036,32119,1.6173
17048035,31447,1.5835
17052035,31879,1.6053
17056032,33336,1.6786
17060036,33448,1.6843
17064037,31847,1.6036
17068032,30903,1.5561
17072035,31847,1.6036
17076032,33048,1.6641
17080033,33576,1.6907
17084034,32055,1.6141
17088034,31447,1.5835
17092032,31847,1.6036
17096032,33128,1.6682
17100033,33144,1.6690
17104035,31815,1.6020
17108032,30855,1.5537
17112032,31767,1.5996
17116029,33048,1.6641
17120032,33272,1.6754
17124035,31895,1.6061
17128032,31015,1.5618
17132035,32071,1.6149
17136032,33384,1.6810
17140031,33608,1.6923
17144031,32840,1.6537
17148034,31767,1.5996
17152035,32487,1.6359
17156035,33944,1.7092
17160032,34184,1.7213
17164031,33592,1.6915
17168031,32824,1.6528
17172029,33736,1.6988
17176030,35368,1.7809
17180034,35384,1.7818
17184033,34488,1.7366
17188035,33560,1.6899
17192034,34328,1.7286
17196030,35480,1.7866
17200034,35384,1.7818
17204031,33336,1.6786
17208030,31943,1.6085
17212036,32103,1.6165
17216035,33336,1.6786
17220028,33064,1.6649
17224029,31671,1.5948
17228036,30631,1.5424
17232036,31255,1.5738
17236029,32695,1.6463
17240032,32695,1.6463
17244030,31255,1.5738
17248029,30279,1.5247
17252033,31047,1.5634
17256031,32776,1.6504
17260033,32711,1.6472
17264029,31271,1.5746
17268036,30631,1.5424
17272033,31047,1.5634
17276037,32215,1.6222
17280032,32247,1.6238
17284036,31335,1.5779
17288036,30135,1.5174
17292036,30919,1.5569
17296035,32439,1.6335
17300031,32487,1.6359
17304037,31287,1.5754
17308033,30535,1.5376
17312036,30919,1.5569
17316031,32023,1.6125
17320029,31447,1.5835
17324030,29479,1.4844
17328037,28775,1.4490
17332032,30071,1.5142
17336032,32455,1.6343
17340032,34184,1.7213
17344033,35512,1.7882
17348034,37417,1.8841
17352029,40457,2.0372
17356033,44106,2.2209
17360030,43802,2.2056
17364037,40441,2.0364
17368037,36985,1.8624
17372033,34424,1.7334
17376034,33480,1.6859
17380032,31991,1.6109
17384031,29879,1.5046
17388035,28662,1.4433
17392032,30087,1.5150
17396032,32055,1.6141
17400036,32679,1.6455
17404032,31271,1.5746
17408035,29975,1.5094
17412030,30615,1.5416
17416036,32055,1.6141
17420035,31975,1.6101
17424036,31031,1.5626
17428033,30119,1.5166
17432036,31143,1.5682
17436038,32471,1.6351
17440035,32567,1.6399
17444032,31479,1.5851
17448034,30439,1.5327
17452033,31287,1.5754
17456035,32904,1.6569
17460033,32968,1.6601
17464035,31495,1.5859
17468035,30551,1.5384
17472032,31591,1.5908
17476033,32968,1.6601
17480036,32920,1.6577
17484031,31559,1.5891
17488035,30887,1.5553
17492033,31655,1.5940
17496032,33400,1.6818
17500030,33464,1.6851
17504033,32615,1.6423
17508031,31527,1.5875
17512035,32423,1.6327
17516031,33592,1.6915
17520035,33736,1.6988
17524031,32888,1.6561
17528035,32183,1.6206
17532030,32904,1.6569
17536031,34456,1.7350
17540031,34408,1.7326
17544030,33432,1.6835
17548035,32936,1.6585
17552035,33464,1.6851
17556030,35112,1.7681
17560031,35256,1.7753
17564033,33992,1.7117
17568033,33192,1.6714
17572031,33848,1.7044
17576033,35432,1.7842
17580033,35432,1.7842
17584033,34232,1.7237
17588035,33224,1.6730
17592031,33864,1.7052
17596031,34984,1.7616
17600036,34696,1.7471
17604035,33336,1.6786
17608032,32503,1.6367
17612035,32695,1.6463
17616029,33944,1.7092
17620032,33736,1.6988
17624029,32263,1.6246
17628035,31127,1.5674
17632034,31895,1.6061
17636029,32952,1.6593
17640034,33016,1.6625
17644033,31831,1.6028
17648035,30887,1.5553
17652035,31495,1.5859
17656034,32904,1.6569
17660033,33160,1.6698
17664034,31991,1.6109
17668034,31111,1.5666
17672031,31511,1.5867
17676036,32888,1.6561
17680029,32727,1.6480
17684033,31511,1.5867
17688031,30663,1.5440
17692032,31319,1.5771
17696032,33064,1.6649
17700038,33048,1.6641
17704032,31911,1.6069
17708033,30839,1.5529
17712029,31879,1.6053
17716036,32968,1.6601
17720035,32888,1.6561
17724030,31879,1.6053
17728033,30679,1.5448
17732032,31543,1.5883
17736035,32984,1.6609
17740034,33000,1.6617
17744033,31847,1.6036
17748031,31223,1.5722
17752037,32071,1.6149
17756033,33880,1.7060
17760032,34072,1.7157
17764029,33016,1.6625
17768028,32055,1.6141
17772036,33144,1.6690
17776034,35672,1.7963
17780034,37369,1.8817
17784035,38121,1.9196
17788034,39897,2.0090
17792037,43770,2.2040
17796032,48635,2.4490
17800033,52300,2.6336
17804030,52892,2.6634
17808033,53357,2.6868
17812035,54749,2.7569
17816033,56301,2.8350
17820032,56269,2.8334
17824037,55373,2.7883
17828036,55325,2.7859
17832032,57133,2.8769
17836033,58094,2.9253
17840029,56589,2.8495
17844033,52732,2.6553
17848028,50076,2.5216
17852033,48795,2.4571
17856029,48267,2.4305
17860033,45579,2.2951
17864035,41674,2.0985
17868032,37433,1.8849
17872032,34392,1.7318
17876035,32087,1.6157
17880036,28759,1.4482
17884032,24694,1.2435
17888032,22197,1.1177
17892032,22309,1.1234
17896036,24021,1.2096
17900036,23589,1.1878
17904033,22101,1.1129
17908031,21413,1.0782
17912032,21637,1.0895
17916032,22901,1.1532
17920034,23013,1.1588
17924031,21685,1.0919
17928035,20501,1.0323
17932033,21349,1.0750
17936036,23141,1.1653
17940032,22821,1.1491
17944033,21429,1.0791
17948031,20356,1.0250
17952037,20805,1.0476
17956031,22277,1.1218
17960032,22469,1.1314
17964032,21125,1.0637
17968036,19732,0.9936
17972035,20244,1.0194
17976033,21621,1.0887
17980034,21333,1.0742
17984031,19988,1.0065
17988033,18644,0.9388
17992035,19252,0.9694
17996034,20581,1.0364
18000036,20324,1.0234
18004037,19076,0.9606
18008031,17924,0.9026
18012036,18788,0.9461
18016031,20228,1.0186
18020034,20084,1.0113
18024035,19012,0.9573
18028031,18308,0.9219
18032037,19220,0.9678
18036032,20885,1.0517
18040031,21253,1.0702
18044032,20565,1.0355
18048032,20549,1.0347
18052036,22021,1.1089
18056031,24261,1.2217
18060032,25142,1.2660
18064037,24341,1.2257
18068035,24437,1.2305
18072035,26326,1.3256
18076036,28951,1.4578
18080033,29815,1.5013
18084037,28903,1.4554
18088035,28839,1.4522
18092030,30759,1.5489
18096033,32519,1.6375
18100034,33064,1.6649
18104034,32231,1.6230
18108034,31671,1.5948
18112032,32888,1.6561
18116031,34488,1.7366
18120031,34408,1.7326
18124032,33192,1.6714
18128035,32407,1.6318
18132037,33224,1.6730
18136031,34408,1.7326
18140031,34408,1.7326
18144032,33512,1.6875
18148036,32792,1.6512
18152030,33544,1.6891
18156031,34984,1.7616
18160030,34952,1.7600
18164031,33592,1.6915
18168037,32551,1.6391
18172033,33672,1.6955
18176033,34840,1.7544
18180031,34776,1.7511
18184031,33672,1.6955
18188029,33112,1.6673
18192034,34104,1.7173
18196032,35912,1.8083
18200031,35816,1.8035
18204033,34680,1.7463
18208030,33624,1.6931
18212032,34536,1.7391
18216033,36296,1.8277
18220032,36536,1.8398
18224032,35464,1.7858
18228035,34568,1.7407
18232032,35464,1.7858
18236034,37161,1.8712
18240036,37433,1.8849
18244034,36456,1.8357
18248029,35208,1.7729
18252030,35832,1.8043
18256032,36360,1.8309
18260032,35560,1.7906
18264034,33608,1.6923
18268031,32599,1.6415
18272037,33368,1.6802
18276034,34472,1.7358
18280033,34280,1.7262
18284030,33048,1.6641
18288034,31975,1.6101
18292036,32856,1.6545
18296035,34504,1.7374
18300033,34072,1.7157
18304035,32439,1.6335
18308032,32023,1.6125
18312037,32952,1.6593
18316033,34200,1.7221
18320032,34056,1.7149
18324035,32920,1.6577
18328036,31975,1.6101
18332035,32503,1.6367
18336035,33944,1.7092
18340035,33832,1.7036
18344029,32663,1.6447
18348034,31719,1.5972
18352032,32583,1.6407
18356030,34344,1.7294
18360036,34120,1.7181
18364033,32840,1.6537
18368031,32007,1.6117
18372037,32792,1.6512
18376035,34200,1.7221
18380032,34008,1.7125
18384034,32599,1.6415
18388035,32023,1.6125
18392031,32792,1.6512
18396037,34184,1.7213
18400035,33928,1.7084
18404034,32519,1.6375
18408033,31959,1.6093
18412033,32743,1.6488
18416036,34296,1.7270
18420029,33880,1.7060
18424030,32872,1.6553
18428030,31991,1.6109
18432033,32551,1.6391
18436037,33576,1.6907
18440035,32872,1.6553
18444032,31095,1.5658
18448036,30343,1.5279
18452030,31991,1.6109
18456035,34376,1.7310
18460031,36008,1.8132
18464034,36953,1.8608
18468029,38633,1.9454
18472033,41786,2.1041
18476032,45515,2.2919
18480033,45611,2.2967
18484032,42362,2.1331
18488031,38793,1.9534
18492033,36072,1.8164
18496033,34616,1.7431
18500033,32968,1.6601
18504031,30887,1.5553
18508033,29927,1.5070
18512030,31751,1.5988
18516034,33720,1.6980
18520034,33752,1.6996
18524036,32776,1.6504
18528031,31607,1.5916
18532030,32423,1.6327
18536038,33656,1.6947
18540033,33736,1.6988
18544034,32215,1.6222
18548035,31367,1.5795
18552030,32471,1.6351
18556034,33976,1.7109
18560033,33896,1.7068
18564033,32535,1.6383
18568030,31607,1.5916
18572036,32471,1.6351
18576030,33992,1.7117
18580036,33976,1.7109
18584033,32695,1.6463
18588036,31831,1.6028
18592033,32776,1.6504
18596036,34328,1.7286
18600031,33992,1.7117
18604037,32663,1.6447
18608031,32055,1.6141
18612034,32952,1.6593
18616032,34184,1.7213
18620033,33992,1.7117
18624034,32615,1.6423
18628034,32359,1.6294
18632036,33368,1.6802
18636032,34648,1.7447
18640034,34680,1.7463
18644033,33496,1.6867
18648032,32663,1.6447
18652034,33848,1.7044
18656033,35384,1.7818
18660030,35432,1.7842
18664032,34344,1.7294
18668031,33640,1.6939
18672029,34504,1.7374
18676028,36280,1.8269
18680034,35960,1.8108
18684032,34824,1.7536
18688030,33992,1.7117
18692030,34904,1.7576
18696036,36264,1.8261
18700033,36152,1.8204
18704033,34840,1.7544
18708035,34072,1.7157
18712033,35064,1.7656
18716038,35912,1.8083
18720035,35656,1.7954
18724030,33784,1.7012
18728035,32904,1.6569
18732032,33816,1.7028
18736034,34600,1.7423
18740032,34200,1.7221
18744037,32551,1.6391
18748034,31895,1.6061
18752030,32679,1.6455
18756033,33704,1.6972
18760031,33288,1.6762
18764032,31703,1.5964
18768035,30775,1.5497
18772032,31799,1.6012
18776037,33256,1.6746
18780031,33080,1.6657
18784035,31751,1.5988
18788030,31239,1.5730
18792034,32007,1.6117
18796032,33128,1.6682
18800033,33128,1.6682
18804035,31687,1.5956
18808029,30839,1.5529
18812031,32119,1.6173
18816033,33608,1.6923
18820033,33480,1.6859
18824033,32199,1.6214
18828033,31719,1.5972
18832031,33128,1.6682
18836034,34344,1.7294
18840033,34344,1.7294
18844032,33240,1.6738
18848030,33224,1.6730
18852035,35592,1.7922
18856030,39129,1.9703
18860034,41738,2.1017
18864033,43594,2.1952
18868031,46027,2.3177
18872037,50284,2.5320
18876034,54189,2.7287
18880036,55725,2.8060
18884034,55245,2.7818
18888029,54461,2.7424
18892037,55421,2.7907
18896032,57822,2.9116
18900030,58990,2.9704
18904030,58446,2.9430
18908035,56733,2.8568
18912034,55613,2.8004
18916035,54797,2.7593
18920030,52844,2.6609
18924032,49131,2.4740
18928031,45451,2.2887
18932036,43914,2.2113
18936032,41962,2.1130
18940031,38297,1.9284
18944034,33240,1.6738
18948031,29367,1.4788
18952032,26886,1.3538
18956035,25958,1.3071
18960035,24117,1.2144
18964031,22197,1.1177
18968036,21285,1.0718
18972035,22229,1.1193
18976034,23205,1.1685
18980033,22709,1.1435
18984031,21205,1.0678
18988036,20485,1.0315
18992035,21493,1.0823
18996035,22757,1.1459
19000034,22437,1.1298
19004038,21173,1.0662
19008037,20356,1.0250
19012034,21125,1.0637
19016030,22853,1.1508
19020033,22085,1.1121
19024030,20436,1.0291
19028030,19620,0.9880
19032035,20404,1.0274
19036034,21733,1.0944
19040032,20933,1.0541
19044030,19444,0.9791
19048033,18660,0.9396
19052036,19428,0.9783
19056037,20805,1.0476
19060036,20436,1.0291
19064034,18852,0.9493
19068030,17652,0.8889
19072036,18660,0.9396
19076032,19892,1.0017
19080034,19508,0.9823
19084035,18244,0.9187
19088036,17508,0.8816
19092032,18580,0.9356
19096034,20276,1.0210
19100033,20308,1.0226
19104033,18868,0.9501
19108033,18564,0.9348
19112030,20116,1.0129
19116037,22085,1.1121
19120028,22389,1.1274
19124034,21765,1.0960
19128035,21733,1.0944
19132034,23573,1.1870
19136032,25894,1.3039
19140037,26454,1.3321
19144033,26022,1.3103
19148031,26374,1.3281
19152032,28342,1.4272
19156030,30631,1.5424
19160035,31223,1.5722
19164033,30487,1.5352
19168036,30183,1.5199
19172033,31895,1.6061
19176031,33528,1.6883
19180035,33992,1.7117
19184032,32743,1.6488
19188030,32391,1.6310
19192037,33944,1.7092
19196035,35320,1.7785
19200034,35096,1.7673
19204034,34056,1.7149
19208029,33064,1.6649
19212033,34392,1.7318
19216034,35800,1.8027
19220036,35624,1.7938
19224034,34568,1.7407
19228034,34168,1.7205
19232036,35288,1.7769
19236030,36344,1.8301
19240034,36456,1.8357
19244029,35112,1.7681
19248037,34584,1.7415
19252030,35352,1.7801
19256036,36200,1.8228
19260034,35272,1.7761
19264035,33464,1.6851
19268037,32423,1.6327
19272030,33208,1.6722
19276031,34296,1.7270
19280034,34072,1.7157
19284030,32535,1.6383
19288034,31879,1.6053
19292033,33032,1.6633
19296035,34488,1.7366
19300032,34072,1.7157
19304033,32503,1.6367
19308037,31751,1.5988
19312032,32968,1.6601
19316034,34120,1.7181
19320036,33864,1.7052
19324029,32343,1.6286
19328035,31767,1.5996
19332037,32808,1.6520
19336030,33944,1.7092
19340036,33480,1.6859
19344031,32151,1.6190
19348034,31591,1.5908
19352034,33032,1.6633
19356028,34024,1.7133
19360035,33896,1.7068
19364030,32295,1.6262
19368033,31559,1.5891
19372034,32535,1.6383
19376036,33992,1.7117
19380032,33640,1.6939
19384032,32295,1.6262
19388037,31751,1.5988
19392032,32776,1.6504
19396029,34024,1.7133
19400034,33688,1.6964
19404030,32343,1.6286
19408033,31655,1.5940
19412037,32663,1.6447
19416036,34168,1.7205
19420033,33544,1.6891
19424033,32263,1.6246
19428035,31719,1.5972
19432032,33032,1.6633
19436037,34200,1.7221
19440035,33768,1.7004
19444033,32359,1.6294
19448033,31959,1.6093
19452031,33080,1.6657
19456034,34488,1.7366
19460032,34040,1.7141
19464036,32743,1.6488
19468028,32055,1.6141
19472034,33112,1.6673
19476030,34408,1.7326
19480032,34040,1.7141
19484035,32535,1.6383
19488037,31911,1.6069
19492035,32936,1.6585
19496034,34328,1.7286
19500034,33928,1.7084
19504029,32663,1.6447
19508036,32135,1.6182
19512032,33240,1.6738
19516030,34872,1.7560
19520031,34104,1.7173
19524036,32679,1.6455
19528034,32023,1.6125
19532033,32888,1.6561
19536031,33880,1.7060
19540033,33256,1.6746
19544035,31383,1.5803
19548035,30199,1.5207
19552034,31207,1.5714
19556036,33352,1.6794
19560033,33736,1.6988
19564036,34008,1.7125
19568037,35816,1.8035
19572031,39577,1.9929
19576033,43818,2.2064
19580035,45002,2.2661
19584034,43978,2.2145
19588031,41146,2.0719
19592032,38937,1.9607
19596034,37001,1.8632
19600035,34392,1.7318
19604034,31079,1.5650
19608034,29559,1.4884
19612032,31063,1.5642
19616037,33224,1.6730
19620035,33576,1.6907
19624031,32023,1.6125
19628031,31463,1.5843
19632030,32567,1.6399
19636037,34056,1.7149
19640030,33432,1.6835
19644029,32039,1.6133
19648038,31383,1.5803
19652030,32599,1.6415
19656031,33992,1.7117
19660029,33704,1.6972
19664034,32471,1.6351
19668030,31655,1.5940
19672030,32695,1.6463
19676034,34040,1.7141
19680036,33304,1.6770
19684033,31831,1.6028
19688033,31495,1.5859
19692032,32679,1.6455
19696032,34040,1.7141
19700033,33784,1.7012
19704035,32199,1.6214
19708033,31591,1.5908
19712033,32647,1.6439
19716030,34264,1.7254
19720030,33992,1.7117
19724030,32503,1.6367
19728032,31879,1.6053
19732031,33016,1.6625
19736031,34360,1.7302
19740036,33896,1.7068
19744038,32503,1.6367
19748033,32039,1.6133
19752033,33384,1.6810
19756036,34792,1.7519
19760030,34792,1.7519
19764035,33496,1.6867
19768031,33368,1.6802
19772035,34552,1.7399
19776036,35640,1.7946
19780034,35320,1.7785
19784030,33928,1.7084
19788035,33336,1.6786
19792038,34744,1.7495
19796029,36136,1.8196
19800032,35816,1.8035
19804035,34568,1.7407
19808036,33848,1.7044
19812030,34920,1.7584
19816033,36024,1.8140
19820031,35544,1.7898
19824035,34008,1.7125
19828036,33304,1.6770
19832031,34056,1.7149
19836037,34936,1.7592
19840034,34168,1.7205
19844032,32679,1.6455
19848031,32183,1.6206
19852035,33192,1.6714
19856031,34184,1.7213
19860034,33432,1.6835
19864034,31975,1.6101
19868035,31511,1.5867
19872031,32151,1.6190
19876032,33400,1.6818
19880034,32808,1.6520
19884034,31575,1.5900
19888036,30839,1.5529
19892030,32375,1.6302
19896031,33480,1.6859
19900030,32888,1.6561
19904034,31319,1.5771
19908033,30743,1.5481
19912032,31847,1.6036
19916036,33256,1.6746
19920035,32792,1.6512
19924031,31591,1.5908
19928029,31255,1.5738
19932034,32391,1.6310
19936033,33448,1.6843
19940036,32936,1.6585
19944037,31527,1.5875
19948031,31127,1.5674
19952035,32103,1.6165
19956036,33656,1.6947
19960034,33080,1.6657
19964035,31655,1.5940
19968035,31351,1.5787
19972034,32311,1.6270
19976032,33736,1.6988
19980030,33224,1.6730
19984034,31607,1.5916
19988030,31239,1.5730
19992035,32471,1.6351
19996034,33688,1.6964
20000030,33144,1.6690
20004030,31687,1.5956
20008033,31207,1.5714
20012031,32391,1.6310
20016032,33592,1.6915
20020037,33304,1.6770
20024031,32119,1.6173
20028031,31303,1.5763
20032033,32087,1.6157
20036034,33304,1.6770
20040035,33240,1.6738
20044029,31959,1.6093
20048036,31415,1.5819
20052032,32888,1.6561
20056033,33624,1.6931
20060030,33256,1.6746
20064028,31911,1.6069
20068031,31735,1.5980
20072035,32455,1.6343
20076031,33544,1.6891
20080037,32984,1.6609
20084032,31623,1.5924
20088033,31463,1.5843
20092034,32776,1.6504
20096028,33656,1.6947
20100029,33432,1.6835
20104030,32087,1.6157
20108031,31399,1.5811
20112034,32391,1.6310
20116034,33640,1.6939
20120037,33496,1.6867
20124030,31927,1.6077
20128034,31463,1.5843
20132032,32679,1.6455
20136034,33960,1.7100
20140036,33384,1.6810
20144031,31959,1.6093
20148035,31431,1.5827
20152031,32551,1.6391
20156036,33768,1.7004
20160036,33736,1.6988
20164035,32359,1.6294
20168036,32167,1.6198
20172033,33576,1.6907
20176032,34824,1.7536
20180034,34056,1.7149
20184031,32663,1.6447
20188032,32471,1.6351
20192037,33496,1.6867
20196031,35000,1.7624
20200031,35272,1.7761
20204033,34216,1.7229
20208032,33320,1.6778
20212033,34696,1.7471
20216031,36104,1.8180
20220034,35768,1.8011
20224031,33864,1.7052
20228032,33048,1.6641
20232031,33704,1.6972
20236037,34280,1.7262
20240031,33336,1.6786
20244036,31575,1.5900
20248033,30727,1.5473
20252030,31751,1.5988
20256029,33480,1.6859
20260035,33016,1.6625
20264035,31463,1.5843
20268031,30775,1.5497
20272032,31687,1.5956
20276032,33064,1.6649
20280034,32455,1.6343
20284032,31271,1.5746
20288036,30695,1.5456
20292031,32135,1.6182
20296034,32920,1.6577
20300032,32407,1.6318
20304030,31415,1.5819
20308035,30647,1.5432
20312032,31879,1.6053
20316031,32776,1.6504
20320029,32359,1.6294
20324032,30919,1.5569
20328037,30487,1.5352
20332038,31799,1.6012
20336036,32840,1.6537
20340031,32503,1.6367
20344030,30183,1.5199
20348033,28967,1.4586
20352035,30151,1.5182
20356036,31719,1.5972
20360032,32343,1.6286
20364034,32071,1.6149
20368037,34312,1.7278
20372037,38377,1.9325
20376034,42170,2.1235
20380032,43850,2.2081
20384036,42762,2.1533
20388034,40713,2.0501
20392036,38857,1.9566
20396035,36808,1.8535
20400036,33704,1.6972
20404031,30791,1.5505
20408031,29351,1.4780
20412035,30231,1.5223
20416029,31927,1.6077
20420037,32007,1.6117
20424035,30519,1.5368
20428038,30135,1.5174
20432032,31335,1.5779
20436035,32407,1.6318
20440029,31799,1.6012
20444032,30247,1.5231
20448036,29735,1.4973
20452029,30871,1.5545
20456032,32119,1.6173
20460031,31703,1.5964
20464030,30439,1.5327
20468035,30119,1.5166
20472032,31319,1.5771
20476031,32567,1.6399
20480032,32263,1.6246
20484032,31047,1.5634
20488034,30615,1.5416
20492032,31863,1.6045
20496031,33048,1.6641
20500034,32087,1.6157
20504032,30967,1.5593
20508036,30663,1.5440
20512031,31735,1.5980
20516034,33080,1.6657
20520034,32359,1.6294
20524034,31079,1.5650
20528037,30615,1.5416
20532035,32071,1.6149
20536028,33336,1.6786
20540033,32936,1.6585
20544030,31735,1.5980
20548032,31351,1.5787
20552034,32776,1.6504
20556031,34120,1.7181
20560030,33496,1.6867
20564032,32247,1.6238
20568032,31911,1.6069
20572031,33560,1.6899
20576036,34584,1.7415
20580029,34392,1.7318
20584032,33080,1.6657
20588031,33032,1.6633
20592033,33864,1.7052
20596035,35144,1.7697
20600032,34968,1.7608
20604028,33544,1.6891
20608036,33080,1.6657
20612031,34312,1.7278
20616031,35160,1.7705
20620036,34408,1.7326
20624034,32936,1.6585
20628037,32039,1.6133
20632031,33048,1.6641
20636030,34376,1.7310
20640034,33208,1.6722
20644034,31687,1.5956
20648036,31239,1.5730
20652035,32776,1.6504
20656034,33688,1.6964
20660034,32792,1.6512
20664034,31335,1.5779
20668032,30663,1.5440
20672036,31751,1.5988
20676031,33032,1.6633
20680034,32247,1.6238
20684031,30999,1.5609
20688034,30535,1.5376
20692035,31735,1.5980
20696030,32984,1.6609
20700030,32135,1.6182
20704030,30967,1.5593
20708032,30615,1.5416
20712031,31911,1.6069
20716034,33288,1.6762
20720033,32567,1.6399
20724032,31127,1.5674
20728031,30567,1.5392
20732034,32135,1.6182
20736035,33448,1.6843
20740032,32567,1.6399
20744036,31159,1.5690
20748035,31015,1.5618
20752029,32231,1.6230
20756033,32952,1.6593
20760036,32663,1.6447
20764036,31639,1.5932
20768033,30983,1.5601
20772030,32327,1.6278
20776035,33976,1.7109
20780033,33832,1.7036
20784036,32439,1.6335
20788035,32247,1.6238
20792036,34088,1.7165
20796036,36072,1.8164
20800034,36824,1.8543
20804033,37481,1.8873
20808035,39369,1.9824
20812034,43914,2.2113
20816034,48475,2.4409
20820032,51100,2.5731
20824032,52316,2.6344
20828035,53020,2.6698
20832033,55325,2.7859
20836034,56381,2.8391
20840037,56141,2.8270
20844032,54893,2.7641
20848030,55341,2.7867
20852033,57582,2.8995
20856034,58734,2.9575
20860033,56845,2.8624
20864033,52972,2.6674
20868030,50364,2.5361
20872037,49260,2.4805
20876030,48139,2.4240
20880030,44714,2.2516
20884030,40857,2.0573
20888034,37593,1.8930
20892032,34600,1.7423
20896033,31687,1.5956
20900032,27686,1.3941
20904035,23653,1.1910
20908033,22005,1.1081
20912031,22581,1.1371
20916029,23733,1.1951
20920033,23253,1.1709
20924036,21813,1.0984
20928035,21349,1.0750
20932037,22341,1.1250
20936033,23189,1.1677
20940030,22613,1.1387
20944036,21221,1.0686
20948032,20517,1.0331
20952030,21973,1.1064
20956037,22773,1.1467
20960031,22389,1.1274
20964029,20709,1.0428
20968034,20773,1.0460
20972036,22021,1.1089
20976033,22933,1.1548
20980032,22245,1.1201
20984029,20340,1.0242
20988033,19716,0.9928
20992035,20853,1.0500
20996034,21605,1.0879
21000032,20853,1.0500
21004038,19236,0.9686
21008034,18628,0.9380
21012031,20244,1.0194
21016033,21109,1.0629
21020030,20180,1.0162
21024030,18324,0.9227
21028030,17796,0.8961
21032036,18884,0.9509
21036033,19972,1.0057
21040036,19460,0.9799
21044035,18180,0.9154
21048029,18436,0.9283
21052030,19828,0.9984
21056035,21173,1.0662
21060035,21061,1.0605
21064031,19956,1.0049
21068029,20228,1.0186
21072030,22261,1.1209
21076030,23925,1.2047
21080036,24069,1.2120
21084031,23493,1.1830
21088037,24085,1.2128
21092037,26726,1.3458
21096033,28646,1.4425
21100032,28839,1.4522
21104036,28054,1.4127
21108030,28598,1.4400
21112033,30503,1.5360
21116035,32247,1.6238
21120033,32215,1.6222
21124035,31287,1.5754
21128033,31399,1.5811
21132037,32968,1.6601
21136031,34296,1.7270
21140030,33544,1.6891
21144032,32199,1.6214
21148036,32007,1.6117
21152034,33592,1.6915
21156032,35368,1.7809
21160035,35016,1.7632
21164031,33592,1.6915
21168031,33016,1.6625
21172033,34072,1.7157
21176035,35256,1.7753
21180034,34744,1.7495
21184036,34152,1.7197
21188036,33976,1.7109
21192035,35592,1.7922
21196035,36376,1.8317
21200027,35832,1.8043
21204036,34680,1.7463
21208031,34632,1.7439
21212033,35880,1.8067
21216034,36760,1.8510
21220032,35928,1.8091
21224036,34088,1.7165
21228033,33160,1.6698
21232035,34056,1.7149
21236029,34984,1.7616
21240033,34088,1.7165
21244035,32551,1.6391
21248035,32327,1.6278
21252036,33240,1.6738
21256032,34408,1.7326
21260029,33896,1.7068
21264031,32583,1.6407
21268037,32055,1.6141
21272037,33432,1.6835
21276035,34216,1.7229
21280032,33624,1.6931
21284032,32391,1.6310
21288031,32231,1.6230
21292034,33528,1.6883
21296033,34648,1.7447
21300033,33896,1.7068
21304033,32215,1.6222
21308031,31991,1.6109
21312035,33352,1.6794
21316037,34520,1.7382
21320033,33816,1.7028
21324031,32263,1.6246
21328031,31751,1.5988
21332032,33384,1.6810
21336030,34200,1.7221
21340035,33512,1.6875
21344036,32423,1.6327
